1718012948.00
64.000000
-0.00
-0.00
-0.00
-0.00
-0.00
-0.00
-0.00
-0.00
-0.00
-0.00
0.00
0.01
0.01
-0.00
-0.03
-0.05
-0.05
0.00
0.13
0.36
0.66
1.01
1.37
1.72
2.06
2.40
2.79
3.24
3.80
4.42
5.06
5.66
6.20
6.68
7.15
7.68
8.31
9.14
10.09
11.04
11.88
12.56
13.14
13.76
14.65
15.96
17.91
20.32
22.90
25.38
27.58
29.57
31.68
34.32
37.81
42.54
48.15
54.10
59.83
64.97
69.58
74.14
79.34
85.71
93.76
103.00
112.62
121.73
129.77
136.75
143.30
150.75
157.77
166.64
177.95
191.79
206.97
220.57
228.25
225.36
208.53
176.87
132.76
80.05
23.07
-34.94
-92.44
-149.16
-205.23
-260.37
-313.74
-363.87
-409.83
-450.91
-486.50
-515.74
-537.23
-549.22
-549.96
-538.37
-514.21
-478.67
-433.88
-382.45
-327.02
-269.84
-212.63
-156.66
-102.95
-52.37
-5.90
35.58
71.43
101.35
125.50
144.38
158.69
169.15
176.37
180.75
182.57
182.07
179.51
175.23
169.65
163.18
156.15
148.81
141.30
133.69
126.02
118.33
110.69
103.16
95.80
88.68
81.83
75.25
68.95
62.95
57.25
51.86
46.78
42.03
37.59
33.45
29.61
26.07
22.81
19.83
17.11
14.67
12.48
10.54
8.83
7.35
6.07
4.97
4.05
3.27
2.62
2.09
1.65
1.30
1.01
0.79
0.61
0.47
0.37
0.29
0.24
0.20
0.17
0.16
0.16
0.18
0.20
0.22
0.25
0.29
0.33
0.37
0.41
0.46
0.51
0.55
0.60
0.66
0.72
0.78
0.84
0.91
0.99
1.08
1.17
1.28
1.40
1.54
1.69
1.86
2.05
2.26
2.50
2.76
3.04
3.35
3.70
4.08
4.49
4.94
5.42
5.94
6.50
7.10
7.75
8.43
9.16
9.94
10.76
11.63
12.54
13.50
14.52
15.60
16.74
17.95
19.21
20.48
21.75
22.92
23.92
24.63
24.93
24.70
23.83
22.26
19.95
16.96
13.33
9.21
4.79
0.27
-4.14
-8.22
-11.80
-14.74
-16.95
-18.38
-19.05
-19.04
-18.44
-17.41
-16.07
-14.58
-13.02
-11.43
-9.83
-8.17
-6.46
-4.73
-3.02
-1.35
0.26
1.81
3.38
5.05
6.96
9.06
11.28
13.55
15.77
17.89
19.93
22.01
24.34
27.21
30.49
34.03
37.62
40.99
43.95
46.47
48.80
51.39
54.78
58.83
63.32
67.78
71.64
74.45
76.12
77.02
77.85
79.46
81.68
84.00
85.48
84.91
81.18
73.58
61.71
44.93
27.03
9.17
-8.45
-26.35
-45.37
-66.31
-89.79
-116.05
-144.71
-174.36
-202.92
-226.93
-242.51
-246.79
-239.25
-222.19
-199.86
-176.81
-156.19
-139.50
-126.35
-115.75
-107.27
-101.33
-98.50
-98.40
-99.08
-97.17
-89.51
-74.13
-51.22
-23.26
5.94
32.60
54.10
69.45
79.16
84.32
86.08
85.23
82.22
77.36
71.15
64.33
57.72
51.96
47.27
43.42
39.93
36.24
32.04
27.30
22.19
16.88
11.22
4.74
-3.13
-12.54
-22.70
-31.77
-37.18
-36.56
-28.66
-14.05
5.00
25.12
42.99
56.20
63.78
66.03
64.07
59.29
52.96
46.05
39.27
33.04
27.58
22.91
18.82
15.03
11.24
7.26
3.07
-1.21
-5.45
-9.66
-14.14
-19.46
-26.21
-34.58
-43.94
-52.63
-58.23
-58.33
-51.45
-37.74
-19.10
1.41
20.50
35.66
45.71
50.78
51.84
50.14
46.76
42.48
37.88
33.39
29.34
25.92
23.10
20.64
18.18
15.34
11.84
7.63
2.77
-2.67
-8.78
-15.80
-23.86
-32.64
-41.02
-47.12
-48.75
-44.28
-33.31
-17.00
2.19
21.28
37.64
49.64
56.77
59.44
58.58
55.23
50.36
44.75
39.00
33.51
28.51
24.07
20.16
16.69
13.57
10.68
7.91
5.08
1.90
-2.10
-7.37
-14.18
-22.18
-30.24
-36.55
-39.06
-36.13
-27.28
-13.36
3.58
20.90
36.11
47.50
54.32
56.73
55.56
51.98
47.25
42.47
38.39
35.33
33.21
31.69
30.34
28.79
26.72
23.84
19.90
14.74
8.41
1.09
-6.91
-15.20
-23.31
-30.47
-35.54
-37.03
-33.60
-24.56
-10.40
7.13
25.55
42.38
55.96
65.80
72.35
76.54
79.17
80.58
80.76
79.58
77.14
73.82
70.23
66.89
64.18
62.22
61.05
60.62
60.78
61.11
60.71
58.36
52.85
43.62
31.19
17.27
4.35
-5.13
-9.60
-8.78
-3.65
3.97
12.07
18.83
22.85
23.25
19.67
12.22
1.42
-11.98
-27.14
-43.21
-59.22
-74.07
-86.52
-95.64
-101.12
-103.53
-104.13
-104.29
-104.87
-105.96
-106.87
-106.60
-104.16
-98.72
-89.53
-75.89
-57.49
-34.79
-9.40
16.25
39.89
60.71
79.95
100.32
124.24
151.79
179.64
201.79
211.97
206.44
185.73
154.28
118.26
82.92
50.81
21.70
-6.05
-33.98
-62.77
-92.66
-124.32
-159.14
-198.41
-241.76
-285.83
-324.34
-349.93
-356.82
-343.35
-312.66
-271.49
-227.61
-187.29
-153.75
-127.33
-106.73
-90.35
-77.20
-67.03
-59.77
-55.13
-52.31
-50.14
-47.40
-43.28
-37.66
-31.12
-24.77
-19.82
-17.27
-17.56
-20.52
-25.42
-30.99
-35.58
-37.33
-34.51
-26.04
-11.89
6.74
27.60
48.04
65.58
78.53
86.11
88.38
86.03
80.11
71.81
62.25
52.35
42.75
33.79
25.61
18.25
11.71
5.96
0.89
-3.72
-8.26
-13.29
-19.44
-27.15
-36.40
-46.24
-54.82
-59.65
-58.40
-49.82
-34.38
-14.28
7.16
26.55
41.38
50.48
54.03
53.01
48.73
42.41
35.01
27.23
19.68
12.79
6.88
2.13
-1.42
-3.99
-5.90
-7.63
-9.72
-12.65
-16.78
-22.41
-29.64
-38.29
-47.52
-55.78
-60.87
-60.53
-53.23
-38.96
-19.48
2.09
22.16
37.77
47.36
50.94
49.67
45.20
39.09
32.46
26.00
20.06
14.89
10.62
7.27
4.74
2.72
0.82
-1.36
-4.01
-7.24
-11.07
-15.64
-21.24
-28.09
-36.06
-44.22
-50.79
-53.52
-50.35
-40.29
-23.92
-3.35
18.40
38.23
53.81
63.92
68.47
68.20
64.34
58.25
51.24
44.37
38.27
33.16
28.88
25.12
21.59
18.14
14.78
11.47
8.13
4.55
0.40
-4.67
-11.05
-18.99
-28.38
-38.43
-47.53
-53.49
-54.14
-48.09
-35.38
-17.60
2.54
22.04
38.43
50.20
56.94
58.98
57.19
52.61
46.42
39.73
33.54
28.44
24.56
21.55
18.75
15.52
11.43
6.51
1.19
-3.95
-8.42
-12.16
-15.65
-19.83
-25.66
-33.67
-43.42
-53.36
-61.08
-63.94
-59.87
-48.11
-29.54
-6.53
17.71
39.94
57.63
69.39
75.07
75.49
71.96
65.96
58.88
51.81
45.56
40.53
36.72
33.70
30.84
27.48
23.27
18.25
12.83
7.46
2.44
-2.33
-7.32
-13.22
-20.61
-29.63
-39.68
-49.28
-56.26
-58.30
-53.66
-41.87
-24.05
-2.71
18.91
37.75
51.71
59.89
62.58
60.81
55.93
49.31
42.18
35.52
30.04
26.00
23.24
21.16
19.04
16.22
12.44
7.94
3.26
-0.99
-4.51
-7.56
-10.92
-15.62
-22.53
-31.79
-42.51
-52.76
-59.89
-61.40
-55.72
-42.88
-24.52
-3.44
17.29
35.16
48.65
57.27
61.27
61.29
58.22
53.14
47.24
41.68
37.28
34.27
32.31
30.65
28.55
25.52
21.54
16.87
11.93
7.15
2.81
-1.07
-4.82
-9.11
-14.63
-21.63
-29.44
-36.23
-39.41
-36.51
-26.18
-8.92
13.04
36.39
57.85
74.90
86.26
91.78
92.15
88.63
82.74
76.16
70.43
66.79
65.82
67.44
70.97
75.38
79.55
82.42
83.28
81.89
78.63
74.37
70.12
66.46
63.22
59.57
54.66
48.36
41.85
37.27
36.88
41.99
52.58
67.72
86.56
108.77
134.07
161.09
186.46
205.16
212.20
204.90
184.39
155.23
123.41
93.74
68.05
45.09
21.80
-4.96
-37.29
-76.04
-120.87
-170.20
-220.97
-268.57
-307.57
-333.34
-343.74
-340.10
-326.68
-308.82
-290.70
-273.92
-257.48
-239.05
-216.59
-189.58
-159.03
-127.00
-95.65
-66.73
-41.48
-20.74
-5.12
5.08
9.97
10.41
7.87
4.23
1.27
0.11
0.96
3.04
5.07
5.82
4.71
2.00
-1.43
-4.48
-6.53
-7.66
-8.78
-11.16
-15.97
-23.56
-33.21
-42.96
-50.21
-52.36
-47.75
-36.23
-19.33
0.22
19.26
35.14
46.22
52.05
53.11
50.38
45.04
38.22
31.02
24.36
18.92
15.01
12.47
10.77
9.20
7.18
4.45
1.04
-2.71
-6.42
-9.89
-13.24
-17.00
-21.91
-28.51
-36.71
-45.46
-52.81
-56.39
-54.24
-45.62
-31.36
-13.58
4.90
21.49
34.36
42.69
46.48
46.30
43.02
37.71
31.50
25.46
20.32
16.40
13.55
11.26
9.00
6.37
3.28
-0.13
-3.60
-6.97
-10.31
-14.01
-18.70
-24.99
-33.05
-42.23
-50.90
-56.78
-57.53
-51.65
-39.05
-21.22
-0.80
19.21
36.24
48.69
56.00
58.47
56.94
52.50
46.32
39.45
32.82
27.01
22.31
18.68
15.84
13.39
10.94
8.22
5.12
1.72
-1.86
-5.64
-9.92
-15.24
-22.10
-30.44
-39.25
-46.60
-50.09
-47.74
-38.81
-24.21
-6.20
12.33
28.76
41.37
49.48
53.26
53.36
50.64
46.04
40.48
34.85
29.80
25.64
22.23
19.20
16.10
12.74
9.15
5.60
2.33
-0.61
-3.48
-6.76
-11.02
-16.72
-23.94
-32.21
-40.39
-46.75
-49.37
-46.72
-38.21
-24.56
-7.64
10.01
25.92
38.25
46.13
49.50
48.95
45.39
39.89
33.59
27.51
22.43
18.70
16.18
14.38
12.70
10.68
8.14
5.20
2.13
-0.89
-3.83
-6.95
-10.68
-15.53
-21.77
-29.19
-36.89
-43.34
-46.70
-45.43
-38.87
-27.57
-13.20
1.89
15.42
25.69
31.87
33.95
32.51
28.42
22.66
16.23
10.00
4.60
0.35
-2.81
-5.24
-7.39
-9.68
-12.36
-15.43
-18.78
-22.27
-25.96
-30.13
-35.31
-41.98
-50.18
-59.27
-67.73
-73.48
-74.46
-69.35
-58.10
-42.06
-23.67
-5.75
9.21
19.57
24.73
25.06
21.54
15.43
7.91
-0.14
-8.14
-15.78
-22.85
-29.22
-34.80
-39.62
-43.96
-48.26
-53.09
-58.97
-66.37
-75.60
-86.80
-99.79
-113.79
-127.23
-137.87
-143.27
-141.52
-131.88
-115.21
-93.79
-70.66
-48.85
-30.67
-17.26
-8.64
-3.99
-2.11
-1.84
-2.32
-3.15
-4.26
-5.73
-7.63
-9.84
-12.11
-14.15
-15.79
-16.98
-17.99
-19.28
-21.55
-25.57
-31.99
-41.00
-51.94
-63.13
-72.00
-75.79
-72.38
-61.07
-42.87
-20.15
4.06
27.02
46.83
62.69
74.68
83.26
88.85
91.44
90.79
86.59
78.94
68.54
56.66
44.79
34.16
25.37
18.31
12.54
7.46
2.61
-2.41
-8.06
-14.90
-23.23
-32.72
-42.10
-49.18
-51.48
-47.00
-34.97
-16.22
6.93
31.34
53.83
71.92
84.25
90.62
91.81
89.13
84.09
77.99
71.76
65.82
60.25
54.97
49.83
44.84
40.11
35.85
32.31
29.58
27.42
25.09
21.44
15.18
5.50
-7.25
-21.27
-33.57
-40.78
-40.31
-31.29
-14.78
6.60
29.61
51.25
69.32
82.56
90.44
93.01
90.73
84.52
75.66
65.69
56.10
48.05
42.06
38.04
35.38
33.20
30.70
27.27
22.55
16.38
8.80
0.13
-8.84
-16.64
-21.36
-21.06
-14.42
-1.26
17.20
38.68
60.41
79.83
95.05
105.05
109.51
108.67
103.16
93.90
82.08
69.11
56.39
45.15
36.18
29.74
25.60
23.15
21.61
20.18
18.08
14.52
8.74
0.25
-10.84
-23.43
-35.42
-44.18
-47.26
-43.29
-32.50
-16.64
1.63
19.58
35.11
47.10
55.17
59.41
60.05
57.36
51.78
44.08
35.28
26.54
18.82
12.61
7.91
4.26
0.98
-2.59
-7.10
-13.09
-21.04
-31.15
-43.02
-55.33
-65.92
-72.15
-71.70
-63.36
-47.46
-25.83
-1.18
23.56
45.91
64.14
77.30
85.04
87.58
85.59
80.14
72.53
63.99
55.47
47.44
39.91
32.57
25.06
17.18
9.01
0.93
-6.67
-13.53
-19.87
-26.27
-33.46
-41.71
-50.43
-58.03
-62.18
-60.58
-51.71
-35.40
-12.98
12.96
39.02
61.57
77.44
84.59
82.62
73.07
58.98
43.96
31.18
22.40
17.90
16.76
17.76
19.81
22.35
25.04
27.59
29.58
30.44
29.60
26.45
20.49
11.40
-0.65
-14.70
-28.91
-40.82
-47.96
-48.58
-42.24
-29.90
-13.59
4.19
21.00
34.92
44.74
50.01
51.03
48.69
44.25
39.00
33.87
29.28
25.14
21.12
16.88
12.33
7.62
3.07
-1.08
-4.79
-8.35
-12.39
-17.77
-25.36
-35.58
-48.01
-61.06
-72.22
-78.62
-77.91
-69.08
-52.80
-31.28
-7.62
15.03
34.00
47.52
54.70
55.45
50.46
41.03
28.90
15.97
3.86
-6.35
-14.33
-20.33
-24.95
-28.78
-32.16
-35.04
-37.13
-38.03
-37.57
-35.92
-33.90
-32.83
-34.22
-39.09
-47.35
-57.43
-66.47
-71.08
-68.54
-57.61
-39.08
-15.41
10.02
33.84
53.39
66.99
73.91
74.23
68.61
58.36
45.19
31.06
17.83
6.74
-1.75
-8.13
-13.43
-18.79
-24.91
-31.84
-39.07
-45.79
-51.31
-55.34
-58.24
-60.89
-64.45
-69.79
-76.93
-84.65
-90.56
-91.81
-86.02
-72.27
-51.49
-26.17
0.46
25.38
46.47
62.63
73.64
79.71
81.30
78.95
73.31
65.08
55.06
44.00
32.59
21.41
10.88
1.26
-7.34
-14.95
-21.64
-27.52
-32.80
-37.69
-42.35
-46.55
-49.40
-49.26
-44.06
-32.01
-12.48
13.34
42.47
70.80
94.22
109.72
116.08
113.86
104.96
91.84
76.78
61.46
46.79
32.97
19.80
6.91
-5.92
-18.69
-31.13
-42.84
-53.47
-62.88
-71.24
-79.13
-87.44
-97.20
-109.13
-123.11
-137.74
-150.35
-157.49
-156.08
-144.46
-123.12
-94.58
-62.60
-31.04
-2.93
20.03
37.20
48.69
54.91
56.44
54.07
48.89
42.19
35.27
29.14
24.40
21.21
19.30
18.23
17.43
16.28
14.01
9.77
2.66
-7.76
-21.07
-35.55
-48.35
-56.12
-56.05
-46.94
-29.69
-7.01
17.45
40.23
58.92
72.45
80.81
84.66
84.81
82.10
77.31
71.19
64.47
57.78
51.54
45.88
40.59
35.30
29.52
22.90
15.20
6.26
-4.18
-16.45
-30.82
-47.01
-63.84
-79.02
-89.60
-92.80
-86.96
-72.28
-50.84
-26.12
-1.99
18.25
32.51
40.20
41.96
39.25
33.85
27.46
21.59
17.53
16.39
19.06
25.95
36.72
50.08
64.04
76.26
84.70
87.84
84.79
75.05
58.35
34.85
5.42
-27.97
-62.29
-93.96
-119.61
-136.86
-144.75
-143.76
-135.46
-122.11
-106.17
-89.96
-75.28
-63.20
-53.93
-47.00
-41.63
-37.11
-33.06
-29.44
-26.37
-23.96
-22.13
-20.68
-19.39
-18.17
-17.14
-16.73
-17.64
-20.78
-26.91
-36.21
-47.86
-59.89
-69.54
-73.98
-71.21
-60.72
-43.67
-22.48
-0.14
20.64
37.94
50.90
59.56
64.61
67.03
67.83
67.89
67.74
67.55
67.09
65.81
63.00
58.08
50.85
41.65
31.41
21.35
12.56
5.54
-0.02
-5.11
-10.94
-18.22
-26.67
-34.93
-40.99
-42.86
-39.41
-30.64
-17.61
-1.96
14.63
30.84
45.76
58.72
69.18
76.69
81.03
82.33
81.20
78.53
75.32
72.38
70.17
68.70
67.72
66.84
65.83
64.66
63.48
62.48
61.69
60.96
60.07
59.04
58.29
58.62
60.88
65.56
72.55
81.22
90.88
101.17
112.15
123.94
136.24
148.15
158.46
166.35
171.93
176.38
181.38
188.30
197.54
208.42
219.60
229.61
237.30
241.94
243.08
240.38
233.65
222.85
208.20
190.04
168.74
144.53
117.46
87.64
55.44
21.82
-11.54
-42.35
-68.10
-86.76
-97.31
-100.22
-97.26
-91.07
-84.37
-79.31
-77.11
-78.14
-82.21
-88.83
-97.43
-107.35
-117.90
-128.35
-138.15
-147.00
-154.99
-162.47
-169.77
-176.98
-183.75
-189.39
-193.12
-194.51
-193.70
-191.50
-189.14
-187.87
-188.60
-191.75
-197.27
-204.76
-213.50
-222.28
-229.36
-232.53
-229.58
-218.99
-200.54
-175.44
-146.05
-115.05
-84.75
-56.63
-31.46
-9.53
9.04
24.36
37.00
48.05
59.03
71.35
85.77
102.05
119.09
135.47
150.02
162.16
171.77
178.70
182.52
182.58
178.60
171.03
161.11
150.14
138.78
126.46
111.62
92.48
68.07
38.70
5.94
-27.90
-60.45
-89.58
-113.60
-131.28
-142.05
-146.24
-145.14
-140.77
-135.24
-130.16
-126.22
-123.35
-121.00
-118.70
-116.42
-114.63
-114.06
-115.28
-118.38
-122.86
-127.83
-132.34
-135.71
-137.65
-138.23
-137.58
-135.80
-132.85
-128.65
-123.25
-116.85
-109.71
-102.06
-94.01
-85.60
-76.90
-68.15
-59.56
-51.04
-41.97
-31.16
-17.22
0.86
23.19
48.76
75.77
102.18
126.38
147.50
165.41
180.39
192.90
203.33
212.07
219.67
226.90
234.71
243.92
254.96
267.61
280.88
293.08
302.05
305.39
300.89
287.00
263.27
230.74
191.88
150.25
109.71
73.53
43.64
20.18
1.69
-14.36
-30.66
-49.38
-71.63
-97.33
-125.31
-153.65
-179.99
-201.96
-217.64
-226.01
-227.34
-223.25
-216.27
-209.19
-204.05
-201.54
-200.95
-200.72
-199.19
-195.33
-188.96
-180.50
-170.65
-159.91
-148.64
-136.96
-125.03
-113.01
-101.02
-89.09
-77.14
-65.10
-53.08
-41.40
-30.44
-20.28
-10.31
0.93
15.47
35.33
61.77
94.82
133.16
174.47
215.98
254.97
288.97
315.93
334.18
342.57
340.64
328.82
308.41
281.38
250.02
216.59
183.07
151.03
121.64
95.70
73.63
55.47
40.91
29.26
19.57
10.78
1.93
-7.59
-17.96
-29.00
-40.25
-51.10
-60.75
-68.33
-72.87
-73.73
-70.76
-64.59
-56.47
-47.98
-40.56
-35.18
-32.34
-32.05
-34.14
-38.28
-43.93
-50.39
-56.81
-62.40
-66.64
-69.43
-71.07
-72.05
-72.87
-73.75
-74.69
-75.49
-75.86
-75.62
-74.73
-73.30
-71.63
-70.09
-69.08
-68.87
-69.32
-69.79
-69.17
-66.21
-59.97
-50.29
-37.89
-24.14
-10.66
1.20
10.55
16.94
20.27
20.69
18.65
14.88
10.42
6.30
3.24
1.48
0.71
0.29
-0.35
-1.59
-3.43
-5.69
-8.14
-10.67
-13.38
-16.47
-20.23
-24.90
-30.67
-37.56
-45.32
-53.37
-60.83
-66.70
-70.13
-70.79
-68.99
-65.80
-62.70
-61.30
-62.81
-67.84
-76.13
-86.79
-98.49
-109.91
-119.98
-127.97
-133.51
-136.47
-136.91
-135.17
-131.91
-127.93
-123.96
-120.26
-116.49
-111.81
-105.43
-97.23
-88.15
-80.12
-75.30
-75.07
-79.19
-85.59
-90.93
-91.81
-85.98
-73.17
-55.01
-34.28
-13.85
4.17
18.71
29.60
37.08
41.47
43.10
42.35
39.75
36.02
32.01
28.58
26.56
26.56
28.82
33.00
38.25
43.35
46.98
48.06
45.92
40.27
31.09
18.70
3.95
-11.63
-25.83
-36.22
-40.88
-39.05
-31.41
-19.86
-6.83
5.55
15.93
23.93
29.89
34.43
38.28
42.01
46.00
50.34
54.86
59.01
62.00
63.00
61.48
57.50
51.83
45.78
40.83
38.10
37.78
39.12
40.53
40.22
36.82
29.81
19.70
7.81
-4.03
-13.92
-20.25
-22.13
-19.64
-13.87
-6.69
-0.16
3.89
4.24
0.34
-7.82
-19.77
-34.56
-50.73
-66.53
-80.24
-90.70
-97.43
-100.61
-100.64
-97.91
-92.84
-86.06
-78.58
-71.26
-63.92
-54.59
-39.63
-15.10
21.21
68.09
120.76
172.37
216.41
248.79
268.40
276.34
274.47
264.42
247.60
225.93
202.40
180.72
164.10
153.88
149.01
146.72
143.93
138.81
131.37
123.15
116.16
111.92
110.73
111.69
113.12
113.22
110.67
104.92
96.02
84.20
69.40
51.06
28.57
2.00
-27.09
-55.54
-79.23
-94.30
-98.39
-91.27
-74.79
-52.19
-27.33
-4.01
14.46
25.71
28.74
24.17
14.20
2.00
-9.18
-16.91
-20.15
-19.34
-15.91
-11.83
-9.00
-8.81
-11.78
-17.38
-24.12
-30.02
-33.31
-33.20
-30.15
-25.65
-21.54
-19.18
-19.03
-20.65
-23.09
-25.51
-27.47
-28.98
-30.25
-31.46
-32.50
-33.10
-32.87
-31.43
-28.55
-24.14
-18.35
-11.55
-4.41
2.18
7.23
9.88
9.62
6.55
1.37
-4.65
-10.01
-13.34
-13.80
-11.30
-6.53
-0.73
4.63
8.26
9.34
7.70
3.80
-1.34
-6.42
-10.15
-11.58
-10.45
-7.31
-3.53
-0.90
-1.19
-5.56
-14.20
-26.21
-39.83
-52.92
-63.48
-70.06
-72.12
-70.06
-65.12
-58.99
-53.43
-49.82
-48.91
-50.66
-54.35
-58.68
-62.09
-62.94
-60.00
-52.73
-41.64
-28.29
-14.91
-3.81
3.31
5.78
4.01
-0.73
-6.73
-12.23
-15.72
-16.18
-13.41
-8.18
-2.14
2.63
4.31
2.02
-3.79
-11.64
-19.62
-26.15
-30.49
-32.82
-33.76
-34.01
-33.79
-32.79
-30.38
-25.97
-19.34
-10.95
-1.85
6.62
13.22
17.11
18.01
16.13
11.99
6.28
-0.07
-5.97
-10.18
-11.68
-10.02
-5.73
-0.34
4.07
5.47
2.67
-4.26
-14.07
-24.76
-34.17
-40.53
-42.71
-40.35
-33.74
-23.77
-11.78
0.57
11.53
19.58
23.74
23.82
20.35
14.50
7.64
1.06
-4.32
-8.04
-10.12
-10.91
-10.89
-10.52
-10.07
-9.53
-8.58
-6.68
-3.24
2.05
8.98
16.75
24.01
29.25
31.22
29.34
23.91
15.97
7.04
-1.24
-7.45
-10.58
-10.16
-6.31
0.20
8.13
15.91
22.03
25.29
25.13
21.73
15.98
9.27
3.16
-0.98
-2.37
-1.05
2.13
5.80
8.45
8.96
6.85
2.40
-3.58
-9.98
-15.67
-19.64
-21.18
-19.97
-16.28
-10.92
-5.27
-0.86
1.06
-0.13
-4.19
-10.18
-16.76
-22.69
-27.11
-29.75
-30.83
-30.81
-30.24
-29.55
-29.05
-28.96
-29.48
-30.81
-33.09
-36.34
-40.36
-44.79
-49.07
-52.64
-54.88
-55.22
-53.14
-48.19
-40.19
-29.34
-16.36
-2.36
11.24
23.09
32.14
37.83
40.09
39.36
36.38
32.18
27.84
24.27
22.04
21.21
21.35
21.69
21.47
20.15
17.57
13.97
9.76
5.33
0.86
-3.77
-8.85
-14.67
-21.06
-27.28
-31.92
-33.30
-30.03
-21.67
-9.02
6.00
21.00
33.87
43.30
48.98
51.25
50.70
47.88
43.22
37.20
30.50
23.95
18.32
14.06
11.14
9.14
7.41
5.36
2.62
-0.90
-4.93
-8.89
-11.96
-13.14
-11.60
-6.86
0.96
11.02
21.93
32.02
39.65
43.60
43.31
38.99
31.65
22.79
14.15
7.22
2.95
1.55
2.59
5.19
8.19
10.48
11.17
9.76
6.39
1.78
-2.82
-6.13
-7.23
-5.95
-2.93
0.64
3.48
4.69
4.01
1.78
-1.28
-4.40
-7.03
-9.01
-10.52
-11.96
-13.69
-15.89
-18.40
-20.94
-23.26
-25.40
-27.80
-31.11
-35.91
-42.34
-50.04
-58.09
-65.33
-70.74
-73.71
-74.27
-73.16
-71.65
-71.21
-73.08
-77.79
-84.76
-92.45
-98.62
-101.00
-97.95
-88.88
-74.33
-55.78
-35.15
-14.46
4.50
20.35
32.24
39.86
43.49
43.85
41.93
38.71
34.97
31.16
27.48
24.04
20.85
17.95
15.32
12.81
10.08
6.71
2.27
-3.43
-10.10
-16.85
-22.21
-24.50
-22.33
-15.19
-3.69
10.60
25.59
39.34
50.47
58.36
63.02
64.80
64.19
61.69
57.82
53.09
48.06
43.28
39.27
36.36
34.65
33.85
33.28
32.04
29.19
24.13
16.69
7.22
-3.59
-14.84
-25.43
-34.07
-39.39
-40.16
-35.67
-26.13
-12.71
2.68
18.05
31.83
43.20
51.94
58.07
61.58
62.41
60.67
56.93
52.39
48.54
46.72
47.45
50.25
53.75
56.17
55.95
52.15
44.71
34.22
21.69
8.15
-5.42
-18.21
-29.43
-38.23
-43.85
-45.59
-43.12
-36.60
-26.75
-14.82
-2.35
9.12
18.44
25.14
29.52
32.37
34.63
36.78
38.76
39.98
39.71
37.56
33.61
28.42
22.73
17.16
12.11
7.75
4.08
1.05
-1.54
-4.04
-6.99
-11.02
-16.69
-24.41
-34.29
-46.22
-59.77
-74.17
-88.20
-100.11
-107.82
-109.25
-102.96
-88.72
-67.89
-43.23
-18.25
3.74
20.52
31.35
36.77
38.01
36.32
32.52
27.09
20.40
13.08
6.09
0.52
-2.74
-3.30
-1.40
2.18
6.38
10.10
12.47
12.96
11.47
8.25
3.81
-1.17
-6.04
-10.30
-13.69
-16.30
-18.47
-20.69
-23.35
-26.50
-29.65
-31.84
-31.89
-28.81
-22.20
-12.36
-0.23
12.91
25.82
37.40
46.80
53.44
56.94
57.19
54.48
49.47
43.16
36.63
30.77
25.99
22.16
18.73
15.05
10.73
5.82
0.79
-3.77
-7.54
-10.60
-13.53
-17.09
-21.98
-28.53
-36.53
-45.16
-53.05
-58.54
-59.99
-56.35
-47.46
-34.27
-18.50
-2.18
12.89
25.43
34.76
40.57
42.82
41.67
37.60
31.44
24.33
17.43
11.63
7.37
4.57
2.77
1.36
-0.23
-2.37
-5.15
-8.40
-11.75
-14.80
-17.33
-19.45
-21.63
-24.43
-28.13
-32.35
-35.96
-37.33
-34.97
-27.99
-16.46
-1.23
16.30
34.65
52.37
68.09
80.57
88.84
92.46
91.72
87.69
81.84
75.62
69.95
65.09
60.76
56.37
51.43
45.70
39.28
32.52
25.87
19.67
14.15
9.32
5.18
1.71
-1.07
-3.04
-4.11
-4.21
-3.30
-1.41
1.32
4.51
7.50
9.43
9.59
7.72
4.34
0.59
-2.12
-2.75
-1.16
1.74
4.15
4.01
-0.32
-9.51
-22.97
-38.95
-54.96
-68.39
-77.14
-80.16
-77.63
-70.89
-62.03
-53.38
-46.89
-43.66
-43.63
-45.64
-47.67
-47.57
-43.65
-35.31
-23.18
-8.86
5.54
18.05
27.32
32.72
34.34
32.82
29.16
24.57
20.22
17.05
15.52
15.46
16.17
16.64
15.97
13.59
9.51
4.16
-1.76
-7.54
-12.72
-17.17
-21.18
-25.23
-29.85
-35.28
-41.24
-46.82
-50.65
-51.28
-47.75
-39.90
-28.57
-15.31
-1.92
10.02
19.51
26.17
30.22
32.20
32.79
32.68
32.46
32.52
32.94
33.49
33.64
32.72
30.16
25.77
19.83
13.18
7.02
2.64
0.98
2.30
6.08
11.15
16.02
19.45
20.76
20.04
18.11
16.20
15.56
17.12
21.14
27.17
34.13
40.59
45.16
46.85
45.32
40.80
34.13
26.41
18.83
12.43
7.83
5.05
3.59
2.59
1.17
-1.13
-4.28
-7.85
-11.34
-14.42
-17.08
-19.47
-21.73
-23.94
-26.07
-28.20
-30.43
-32.79
-35.03
-36.60
-36.78
-34.94
-30.87
-24.73
-17.03
-8.21
1.35
11.37
21.36
30.38
36.92
39.21
35.62
25.18
8.16
-13.73
-37.62
-59.90
-77.04
-86.42
-86.96
-79.42
-66.19
-50.74
-36.78
-27.44
-24.70
-29.00
-39.26
-53.13
-67.44
-78.83
-84.40
-82.35
-72.32
-55.43
-33.98
-10.89
10.94
29.17
42.33
49.87
52.10
49.93
44.70
37.79
30.51
23.84
18.31
14.05
10.96
8.73
7.13
5.88
4.78
3.51
1.73
-0.99
-5.04
-10.70
-18.03
-26.73
-36.03
-44.69
-51.05
-53.43
-50.65
-42.38
-29.39
-13.36
3.57
19.43
32.78
42.83
49.37
52.48
52.45
49.75
45.10
39.39
33.65
28.72
24.99
22.36
20.31
18.19
15.51
12.12
8.25
4.36
0.99
-1.49
-2.92
-3.46
-3.65
-4.24
-6.11
-9.88
-15.53
-22.19
-28.21
-31.61
-30.72
-24.84
-14.45
-1.00
13.65
27.81
40.31
50.51
58.04
62.62
63.97
62.09
57.46
51.05
44.10
37.77
32.74
29.05
26.39
24.35
22.81
22.03
22.36
23.95
26.52
29.30
31.34
31.81
30.19
26.33
20.34
12.48
3.11
-7.12
-17.21
-25.77
-31.36
-32.92
-30.17
-23.81
-15.35
-6.56
1.05
6.61
10.03
11.77
12.50
12.76
12.71
12.25
11.14
9.22
6.50
3.19
-0.50
-4.34
-8.22
-12.03
-15.73
-19.31
-22.90
-26.82
-31.46
-37.10
-43.75
-51.12
-58.80
-66.59
-74.62
-83.22
-92.50
-101.75
-109.33
-112.92
-110.37
-100.52
-83.80
-62.11
-38.31
-15.32
4.53
19.88
30.34
36.19
38.20
37.38
34.79
31.47
28.22
25.54
23.55
22.03
20.50
18.39
15.26
10.89
5.49
-0.41
-6.04
-10.73
-14.14
-16.54
-18.72
-21.70
-26.25
-32.49
-39.71
-46.44
-50.94
-51.58
-47.30
-37.78
-23.44
-5.28
15.25
36.36
56.06
72.40
83.77
89.29
89.11
84.40
76.99
68.84
61.37
55.18
50.03
45.25
40.29
35.07
30.08
26.14
23.92
23.58
24.62
25.93
26.24
24.44
19.80
12.18
2.03
-9.61
-21.17
-30.72
-36.39
-36.73
-31.24
-20.52
-6.23
9.44
24.18
36.07
43.85
46.99
45.67
40.73
33.47
25.41
17.92
11.88
7.52
4.45
1.91
-0.86
-4.34
-8.62
-13.37
-18.07
-22.23
-25.47
-27.81
-29.59
-31.61
-34.76
-39.78
-46.83
-55.11
-62.92
-67.99
-68.12
-62.04
-49.91
-33.41
-15.28
1.55
14.83
23.44
27.56
28.20
26.69
24.17
21.37
18.67
16.23
14.18
12.67
11.74
11.25
10.83
9.97
8.22
5.42
1.77
-2.16
-5.68
-8.30
-9.97
-11.16
-12.75
-15.60
-20.28
-26.71
-34.16
-41.27
-46.44
-48.18
-45.49
-38.07
-26.43
-11.76
4.33
20.11
34.01
44.88
52.19
55.94
56.65
55.11
52.18
48.61
44.91
41.36
38.00
34.64
30.95
26.56
21.29
15.21
8.86
3.03
-1.42
-3.98
-4.66
-4.03
-3.13
-3.06
-4.75
-8.76
-15.07
-23.04
-31.51
-38.83
-43.29
-43.41
-38.41
-28.45
-14.64
1.22
16.99
30.75
41.06
47.15
49.00
47.16
42.67
36.73
30.52
24.93
20.43
17.02
14.34
11.89
9.21
6.08
2.55
-1.10
-4.55
-7.58
-10.19
-12.62
-15.26
-18.43
-22.27
-26.66
-31.16
-35.23
-38.18
-39.37
-38.28
-34.61
-28.43
-20.21
-10.78
-1.19
7.67
15.28
21.57
26.71
30.82
33.79
35.24
34.83
32.55
28.88
24.68
20.80
17.79
15.73
14.34
13.27
12.35
11.65
11.31
11.33
11.45
11.09
9.67
6.75
2.27
-3.33
-9.18
-14.10
-16.88
-16.56
-12.79
-6.04
2.47
10.98
17.76
21.57
22.04
19.77
16.00
12.13
9.29
8.03
8.34
9.81
11.81
13.69
14.77
14.35
11.80
6.79
-0.53
-9.40
-18.62
-26.89
-33.26
-37.43
-39.82
-41.29
-42.77
-44.85
-47.52
-50.16
-51.74
-51.12
-47.48
-40.64
-31.16
-20.18
-9.07
0.96
9.12
15.13
19.09
21.25
21.90
21.40
20.26
19.12
18.65
19.39
21.45
24.44
27.55
29.73
30.06
27.96
23.43
16.97
9.47
1.95
-4.78
-10.31
-14.74
-18.51
-22.23
-26.38
-31.08
-36.03
-40.55
-43.69
-44.43
-41.90
-35.59
-25.45
-12.02
3.75
20.54
36.92
51.51
63.22
71.27
75.32
75.50
72.44
67.12
60.67
54.20
48.41
43.58
39.59
36.00
32.38
28.68
25.48
24.13
26.51
34.34
48.32
67.42
88.68
107.84
120.51
123.52
115.72
98.07
73.08
43.87
13.49
-15.58
-41.49
-63.03
-79.67
-91.58
-99.60
-104.93
-108.76
-111.98
-114.96
-117.64
-119.57
-120.09
-118.33
-113.40
-104.60
-91.81
-75.56
-57.03
-37.54
-18.09
0.89
19.39
37.24
53.54
66.43
73.68
73.48
65.50
51.28
33.89
16.98
3.60
-4.67
-7.86
-7.19
-4.23
-0.25
4.30
9.59
16.10
24.08
33.15
42.30
49.97
54.71
55.64
52.91
47.77
42.16
37.98
36.42
37.51
40.07
42.08
41.13
35.15
22.96
4.82
-17.15
-39.45
-57.95
-69.47
-73.06
-70.56
-66.01
-64.12
-68.30
-79.43
-95.53
-112.58
-126.02
-132.10
-128.86
-116.11
-95.16
-68.16
-37.61
-6.08
23.81
49.42
68.49
79.49
82.09
77.73
69.13
59.53
51.50
46.28
43.71
42.52
41.22
38.62
34.21
28.04
20.67
13.02
6.28
1.74
0.23
1.60
4.42
6.35
4.93
-1.20
-11.58
-24.11
-35.78
-43.84
-46.49
-43.17
-34.35
-21.48
-6.44
8.42
20.47
27.51
28.37
23.44
14.50
4.04
-5.59
-12.97
-17.87
-20.92
-23.05
-25.06
-27.43
-30.38
-33.94
-38.07
-42.52
-46.90
-50.68
-53.40
-55.04
-56.04
-57.22
-59.24
-62.12
-64.84
-65.64
-62.50
-54.03
-39.98
-21.32
0.05
21.84
41.91
58.56
70.76
78.14
80.97
79.94
75.87
69.27
59.98
47.03
28.89
3.95
-28.68
-68.40
-112.61
-156.98
-196.26
-225.76
-242.60
-246.42
-239.19
-224.22
-205.02
-184.35
-163.99
-144.89
-127.53
-112.13
-98.62
-86.60
-75.34
-63.99
-51.93
-39.05
-25.84
-13.42
-3.23
3.43
6.02
5.09
2.30
-0.33
-1.23
-0.04
2.23
3.92
3.54
0.61
-4.29
-9.93
-15.26
-19.94
-24.45
-29.77
-36.71
-45.43
-55.20
-64.45
-71.26
-73.89
-71.41
-64.03
-53.06
-40.34
-27.56
-15.72
-5.16
3.99
11.40
16.33
18.01
16.17
11.50
5.45
-0.32
-4.66
-7.40
-9.22
-11.09
-13.65
-16.78
-19.75
-21.59
-21.67
-20.09
-17.81
-16.30
-16.92
-20.30
-26.03
-32.84
-39.18
-43.64
-45.24
-43.12
-36.41
-24.27
-6.30
16.85
43.12
69.48
92.71
110.45
121.83
127.39
128.52
126.71
123.11
118.42
112.96
106.90
100.28
93.19
85.74
78.14
70.63
63.45
56.79
50.72
45.16
39.86
34.37
27.96
19.82
9.40
-3.24
-16.95
-29.55
-38.30
-40.75
-35.49
-22.75
-4.12
18.02
41.27
63.78
84.34
102.13
116.40
126.45
131.75
132.38
129.20
123.65
117.39
111.57
106.54
101.72
96.12
88.83
79.57
68.79
57.40
46.37
36.23
26.92
17.88
8.36
-2.34
-14.67
-28.70
-43.99
-59.43
-73.20
-82.99
-86.51
-82.21
-69.83
-50.47
-26.34
-0.13
25.63
48.85
68.02
82.09
90.50
93.25
91.02
85.09
77.08
68.49
60.35
53.01
46.27
39.70
32.85
25.54
17.84
9.98
2.20
-5.40
-12.94
-20.75
-29.29
-39.03
-50.24
-62.70
-75.49
-86.99
-95.17
-98.17
-94.88
-85.25
-70.25
-51.38
-30.24
-8.24
13.37
33.35
50.37
63.26
71.30
74.59
74.04
71.10
67.23
63.51
60.48
58.17
56.35
54.68
52.88
50.75
48.21
45.28
42.05
38.50
34.40
29.14
21.90
12.10
-0.14
-13.43
-25.29
-32.68
-33.02
-25.01
-8.91
13.69
40.46
68.74
95.76
118.70
134.90
142.44
140.72
130.82
115.27
97.19
79.37
63.63
50.73
40.76
33.52
28.74
25.99
24.60
23.68
22.35
20.08
16.78
12.70
8.14
3.07
-2.99
-10.83
-21.05
-33.53
-47.00
-59.16
-67.28
-68.97
-63.00
-49.57
-30.26
-7.54
15.77
36.93
53.58
63.99
67.33
63.79
54.63
41.94
28.07
15.08
4.28
-3.81
-9.43
-13.12
-15.53
-17.12
-18.20
-18.87
-19.17
-19.15
-18.92
-18.82
-19.36
-21.26
-25.26
-31.76
-40.52
-50.36
-59.27
-64.91
-65.30
-59.52
-48.01
-32.37
-14.69
3.04
19.30
33.04
43.49
50.03
52.28
50.43
45.34
38.49
31.42
25.28
20.41
16.46
12.76
8.80
4.52
0.28
-3.38
-6.11
-7.94
-9.25
-10.66
-12.83
-16.29
-21.37
-28.14
-36.29
-45.05
-53.10
-58.77
-60.37
-56.72
-47.59
-33.79
-17.00
0.79
17.75
32.55
44.47
53.26
59.02
62.15
63.21
62.80
61.35
58.86
54.98
49.19
41.16
31.13
19.93
8.84
-0.87
-8.36
-13.42
-16.42
-18.11
-19.36
-20.98
-23.62
-27.67
-33.14
-39.45
-45.45
-49.54
-50.14
-46.17
-37.45
-24.86
-10.09
4.84
18.14
28.61
35.72
39.54
40.43
38.92
35.49
30.67
24.95
18.81
12.66
6.74
1.12
-4.27
-9.49
-14.52
-19.20
-23.31
-26.67
-29.34
-31.66
-34.31
-38.06
-43.48
-50.60
-58.64
-66.04
-70.90
-71.55
-67.12
-57.81
-44.75
-29.61
-14.06
0.53
13.21
23.34
30.54
34.68
35.95
34.83
31.99
28.07
23.55
18.73
13.85
9.16
4.88
1.13
-2.22
-5.61
-9.60
-14.66
-21.01
-28.61
-37.27
-46.63
-56.14
-64.89
-71.55
-74.65
-72.96
-66.08
-54.61
-40.08
-24.50
-9.69
3.04
13.10
20.39
25.12
27.55
27.94
26.55
23.65
19.55
14.49
8.73
2.46
-4.05
-10.49
-16.52
-21.79
-26.03
-29.15
-31.29
-32.80
-34.24
-36.17
-39.00
-42.66
-46.53
-49.51
-50.32
-47.93
-42.00
-32.95
-21.91
-10.25
0.68
9.88
16.69
20.76
21.96
20.39
16.37
10.51
3.56
-3.68
-10.57
-16.72
-22.06
-26.79
-31.27
-35.84
-40.74
-45.93
-51.08
-55.52
-58.31
-58.49
-55.39
-48.90
-39.57
-28.41
-16.48
-4.53
7.19
18.83
30.61
42.47
53.96
64.36
72.93
79.20
83.07
84.70
84.35
82.22
78.46
73.22
66.73
59.40
51.75
44.36
37.69
31.98
27.18
23.02
19.11
15.09
10.76
6.04
0.93
-4.64
-10.83
-17.77
-25.32
-32.92
-39.48
-43.70
-44.44
-41.25
-34.54
-25.45
-15.49
-6.04
1.99
8.12
12.25
14.38
14.62
13.14
10.34
6.79
3.10
-0.25
-3.05
-5.39
-7.54
-9.69
-11.89
-13.96
-15.66
-16.77
-17.31
-17.56
-18.01
-19.16
-21.32
-24.31
-27.42
-29.50
-29.33
-26.02
-19.40
-10.11
0.64
11.40
20.98
28.63
34.08
37.39
38.68
38.12
35.95
32.52
28.32
23.87
19.57
15.58
11.89
8.39
5.02
1.85
-1.02
-3.46
-5.53
-7.42
-9.49
-12.11
-15.52
-19.61
-23.77
-26.99
-28.04
-25.86
-19.87
-10.24
2.09
15.73
29.18
41.17
50.90
58.12
62.92
65.69
66.86
66.74
65.54
63.32
60.08
56.00
51.50
47.29
44.20
43.01
44.12
47.41
52.18
57.30
61.68
64.69
66.51
68.12
71.00
76.45
84.87
95.71
107.40
118.10
126.33
131.33
132.93
131.28
126.82
120.49
113.65
107.68
103.08
98.82
92.36
80.79
62.45
38.23
11.71
-12.22
-29.45
-38.28
-39.99
-37.89
-35.75
-36.43
-41.31
-50.54
-63.62
-79.86
-98.31
-117.63
-136.05
-151.12
-160.39
-162.14
-156.20
-144.18
-129.01
-114.00
-101.66
-92.96
-87.22
-82.73
-77.54
-70.29
-60.54
-48.78
-36.09
-23.80
-13.06
-4.66
1.00
3.89
4.24
2.36
-1.43
-6.84
-13.59
-21.32
-29.65
-38.20
-46.67
-54.80
-62.34
-68.94
-74.09
-77.13
-77.44
-74.60
-68.61
-59.96
-49.51
-38.38
-27.71
-18.48
-11.35
-6.63
-4.18
-3.41
-3.42
-3.30
-2.39
-0.51
2.12
5.12
8.34
12.08
16.98
23.55
31.83
41.10
50.13
57.55
62.27
63.77
62.17
58.33
53.88
51.22
53.06
61.78
78.39
101.76
128.39
153.03
170.07
175.14
166.54
145.64
116.47
84.26
53.84
28.35
8.90
-4.90
-13.89
-18.39
-18.11
-12.63
-2.22
11.60
26.40
39.60
49.46
55.52
58.37
58.95
58.00
55.84
52.60
48.54
44.24
40.46
37.71
36.04
34.94
33.63
31.31
27.46
21.96
15.01
7.07
-1.31
-9.64
-17.59
-25.10
-32.32
-39.56
-46.99
-54.67
-62.43
-69.95
-76.88
-82.91
-87.86
-91.74
-94.82
-97.63
-100.66
-104.12
-107.53
-109.71
-109.07
-104.25
-94.63
-80.67
-63.64
-45.16
-26.68
-9.34
6.00
18.49
27.18
31.27
30.39
24.87
15.77
4.52
-7.61
-19.82
-31.94
-44.13
-56.50
-68.71
-79.90
-88.83
-94.25
-95.29
-91.71
-84.00
-73.17
-60.59
-47.56
-35.08
-23.57
-12.82
-2.22
8.99
21.24
34.44
47.84
60.32
70.82
78.63
83.63
86.14
86.65
85.49
82.74
78.29
72.01
64.01
54.70
44.68
34.50
24.47
14.51
4.28
-6.55
-18.14
-30.27
-42.52
-54.43
-65.83
-76.91
-88.16
-99.96
-112.21
-124.08
-134.14
-140.77
-142.78
-139.83
-132.55
-122.28
-110.59
-98.87
-88.12
-78.92
-71.48
-65.78
-61.51
-58.16
-55.08
-51.66
-47.50
-42.59
-37.18
-31.72
-26.67
-22.37
-18.97
-16.49
-14.81
-13.75
-13.12
-12.80
-12.78
-13.18
-14.13
-15.63
-17.31
-18.42
-17.93
-14.95
-9.06
-0.67
9.08
18.68
26.70
32.25
35.07
35.38
33.60
30.12
25.29
19.46
13.10
6.72
0.70
-4.81
-9.98
-15.09
-20.35
-25.77
-31.15
-36.16
-40.60
-44.44
-47.86
-51.22
-54.90
-59.09
-63.62
-67.75
-70.23
-69.53
-64.29
-53.96
-39.06
-21.17
-2.51
14.67
28.66
38.48
43.92
45.30
43.23
38.57
32.30
25.43
18.92
13.45
9.26
6.21
3.89
1.84
-0.21
-2.31
-4.37
-6.21
-7.75
-9.05
-10.35
-12.04
-14.57
-18.21
-22.88
-27.96
-32.23
-34.23
-32.64
-26.85
-17.20
-4.89
8.45
21.21
32.20
40.69
46.28
48.81
48.24
44.89
39.44
32.99
26.71
21.56
18.00
15.91
14.78
14.02
13.20
12.15
10.91
9.56
8.11
6.48
4.53
2.08
-1.13
-5.35
-10.75
-17.24
-24.23
-30.62
-34.90
-35.61
-31.85
-23.65
-12.06
1.26
14.50
26.17
35.37
41.69
45.08
45.65
43.67
39.62
34.29
28.64
23.61
19.82
17.42
16.02
14.96
13.63
11.69
9.20
6.52
4.05
2.01
0.33
-1.33
-3.44
-6.41
-10.51
-15.76
-21.86
-28.10
-33.43
-36.59
-36.46
-32.47
-24.81
-14.45
-2.78
8.79
19.12
27.51
33.56
37.07
37.96
36.33
32.63
27.64
22.33
17.60
14.01
11.66
10.28
9.43
8.71
7.86
6.89
5.90
5.04
4.34
3.68
2.73
1.07
-1.75
-6.01
-11.60
-17.97
-24.08
-28.57
-30.16
-27.94
-21.75
-12.18
-0.48
11.77
23.06
32.17
38.36
41.33
41.23
38.48
33.79
28.07
22.27
17.21
13.36
10.84
9.36
8.47
7.75
6.97
6.10
5.21
4.26
3.06
1.26
-1.48
-5.44
-10.67
-17.03
-24.01
-30.80
-36.26
-39.19
-38.60
-34.12
-26.12
-15.68
-4.24
6.77
16.28
23.63
28.55
30.99
31.06
29.09
25.70
21.66
17.80
14.76
12.77
11.68
11.09
10.55
9.81
8.81
7.70
6.67
5.76
4.87
3.69
1.82
-1.12
-5.39
-10.94
-17.26
-23.36
-27.87
-29.43
-27.10
-20.76
-11.16
0.31
12.03
22.72
31.57
38.31
42.91
45.42
45.87
44.41
41.46
37.73
34.03
31.07
29.14
28.10
27.55
27.06
26.40
25.60
24.88
24.47
24.47
24.78
25.10
25.05
24.22
22.34
19.35
15.50
11.47
8.23
6.86
8.17
12.44
19.26
27.67
36.46
44.48
50.96
55.46
57.80
57.94
55.89
51.85
46.28
39.97
33.86
28.75
25.10
22.77
21.26
19.91
18.22
16.04
13.61
11.29
9.42
8.10
7.16
6.27
5.04
3.21
0.70
-2.35
-5.52
-8.21
-9.69
-9.29
-6.62
-1.65
5.14
12.95
20.79
27.78
33.25
36.87
38.61
38.63
37.18
34.57
31.13
27.21
23.19
19.36
15.86
12.70
9.77
6.95
4.21
1.61
-0.70
-2.63
-4.23
-5.74
-7.50
-9.89
-13.14
-17.24
-21.90
-26.55
-30.42
-32.71
-32.81
-30.47
-25.96
-20.00
-13.60
-7.72
-3.02
0.17
1.85
2.26
1.63
0.20
-1.79
-4.06
-6.38
-8.52
-10.41
-12.08
-13.57
-14.93
-16.09
-16.92
-17.30
-17.17
-16.57
-15.63
-14.54
-13.51
-12.75
-12.40
-12.42
-12.42
-11.77
-9.60
-5.10
2.17
12.15
24.22
37.43
50.69
63.06
73.86
82.76
89.74
95.04
99.08
102.36
105.31
108.17
110.88
113.09
114.28
113.98
111.98
108.53
104.27
100.15
97.03
95.39
95.02
94.99
93.88
90.23
83.17
72.65
59.48
44.79
29.56
14.20
-1.48
-18.04
-36.02
-55.74
-77.21
-100.12
-123.89
-147.57
-169.89
-189.45
-205.03
-215.93
-222.18
-224.41
-223.53
-220.38
-215.56
-209.44
-202.29
-194.39
-186.03
-177.51
-169.12
-161.14
-153.83
-147.26
-141.21
-135.00
-127.55
-117.67
-104.57
-88.22
-69.50
-49.94
-31.30
-14.98
-1.79
8.07
14.85
18.96
20.84
20.90
19.57
17.31
14.58
11.85
9.44
7.57
6.27
5.42
4.74
3.90
2.59
0.66
-1.94
-5.22
-9.18
-13.77
-18.67
-23.16
-26.21
-26.88
-24.75
-20.25
-14.49
-8.75
-3.86
0.12
3.72
7.57
11.85
16.11
19.54
21.50
21.85
21.13
20.13
19.53
19.51
19.80
19.88
19.34
18.07
16.28
14.35
12.49
10.71
8.82
6.61
4.07
1.36
-1.25
-3.51
-5.12
-5.68
-4.60
-1.22
4.86
13.48
23.67
33.87
42.24
47.35
48.40
45.50
39.38
31.18
22.16
13.53
6.29
1.16
-1.59
-2.11
-0.93
1.18
3.41
5.05
5.63
4.93
2.88
-0.36
-4.49
-8.91
-12.70
-14.72
-13.81
-9.18
-0.72
10.92
24.44
38.18
50.55
60.32
66.76
69.75
69.63
67.15
63.34
59.25
55.79
53.52
52.60
52.89
54.07
55.84
57.95
60.20
62.50
64.76
66.91
68.81
70.16
70.45
69.05
65.52
59.80
52.48
44.61
37.57
32.65
30.85
32.76
38.48
47.61
59.13
71.34
82.08
89.16
91.04
87.32
78.90
67.64
55.66
44.69
35.55
28.17
21.86
15.74
9.13
1.89
-5.37
-11.26
-13.20
-8.03
7.45
35.28
75.16
123.48
173.72
218.08
249.99
266.24
267.51
257.47
240.68
220.81
200.05
179.57
160.31
143.31
129.15
117.09
104.68
88.47
65.54
35.18
-0.48
-37.13
-69.92
-95.30
-112.14
-121.64
-126.59
-130.32
-135.29
-142.65
-152.06
-162.29
-171.80
-179.38
-184.46
-187.15
-188.11
-188.40
-189.37
-192.35
-198.28
-207.27
-218.32
-229.35
-237.69
-240.69
-236.49
-224.53
-205.63
-181.67
-155.01
-127.85
-101.85
-77.93
-56.42
-37.15
-19.72
-3.65
11.36
25.34
38.00
48.88
57.63
64.30
69.38
73.59
77.54
81.33
84.45
85.82
84.19
78.52
68.46
54.61
38.56
22.63
9.17
-0.13
-4.80
-5.63
-4.22
-2.25
-0.77
0.24
1.82
5.62
13.31
26.00
43.77
65.54
89.16
112.00
131.61
146.38
155.77
160.02
159.52
154.27
143.71
127.11
104.18
75.63
43.23
9.44
-23.34
-53.38
-79.94
-103.06
-123.08
-140.36
-155.16
-167.80
-178.84
-188.95
-198.60
-207.66
-215.15
-219.59
-219.59
-214.66
-205.50
-193.72
-181.05
-168.41
-155.52
-141.05
-123.45
-101.81
-76.52
-49.26
-22.54
1.12
19.83
32.75
40.14
43.17
43.68
43.76
45.41
50.03
58.12
69.21
82.09
95.35
107.79
118.65
127.58
134.39
138.85
140.72
139.84
136.33
130.69
123.77
116.52
109.94
104.76
101.28
99.04
96.69
91.98
82.38
65.87
42.03
12.50
-19.32
-49.26
-73.71
-90.62
-99.78
-102.48
-100.73
-96.77
-92.67
-90.24
-90.90
-95.39
-103.46
-113.77
-124.16
-132.29
-136.25
-135.05
-128.74
-118.18
-104.81
-90.29
-76.34
-64.36
-55.31
-49.44
-46.33
-44.96
-44.06
-42.45
-39.32
-34.46
-28.38
-22.23
-17.50
-15.59
-17.15
-21.60
-27.01
-30.53
-29.22
-21.10
-5.88
14.89
38.41
61.55
81.86
98.15
110.38
119.32
125.91
130.88
134.65
137.51
139.66
141.24
142.22
142.44
141.71
140.05
137.71
134.98
131.82
127.50
120.58
109.45
93.02
71.31
45.56
17.87
-9.57
-34.99
-57.39
-76.43
-92.25
-105.45
-116.96
-127.98
-139.52
-151.93
-164.37
-174.85
-180.67
-179.43
-169.98
-152.86
-130.13
-104.67
-79.25
-55.81
-35.32
-17.92
-3.41
8.48
17.92
25.12
30.42
34.28
37.23
39.66
41.77
43.62
45.19
46.48
47.45
47.98
47.92
47.19
45.99
44.90
44.66
45.81
48.32
51.39
53.69
53.75
50.33
42.67
30.60
14.54
-4.37
-24.23
-42.66
-57.20
-66.19
-69.34
-67.93
-64.40
-61.36
-60.67
-62.84
-67.15
-72.11
-76.25
-78.42
-77.93
-74.39
-67.52
-57.21
-43.77
-28.18
-12.14
2.23
13.06
19.39
21.45
20.59
18.67
17.39
17.70
19.61
22.37
24.89
26.13
25.28
21.91
15.99
8.06
-0.50
-7.44
-10.03
-5.79
6.48
26.12
50.60
76.17
98.86
115.45
124.03
124.02
115.91
100.95
80.83
57.52
33.10
9.49
-11.81
-29.92
-44.62
-56.24
-65.39
-72.73
-78.68
-83.46
-86.99
-89.04
-89.41
-87.95
-84.63
-79.54
-72.88
-65.01
-56.42
-47.75
-39.76
-33.23
-28.82
-26.78
-26.62
-26.89
-25.31
-19.29
-6.82
12.71
38.10
66.60
94.79
119.72
139.70
154.50
164.92
172.00
176.36
178.04
176.77
172.41
165.30
156.11
145.42
133.18
118.61
100.55
78.14
51.56
22.18
-7.81
-36.12
-61.22
-82.69
-101.03
-117.00
-131.11
-143.19
-152.59
-158.68
-161.31
-160.99
-158.61
-154.94
-150.00
-143.00
-132.67
-117.92
-98.56
-75.56
-50.84
-26.56
-4.36
15.03
31.75
46.40
59.55
71.46
82.05
91.08
98.36
103.92
108.00
111.12
113.98
117.25
121.33
126.02
130.46
133.33
133.20
128.97
120.16
106.89
89.64
68.97
45.47
19.84
-7.05
-34.19
-60.60
-85.49
-108.30
-128.57
-145.76
-159.01
-167.40
-170.19
-167.21
-159.15
-147.36
-133.54
-119.15
-105.08
-91.53
-78.36
-65.46
-53.05
-41.73
-32.16
-24.74
-19.37
-15.49
-12.34
-9.08
-4.93
0.92
9.24
20.44
34.28
49.68
64.98
78.63
89.79
98.59
105.76
111.84
116.54
118.65
116.69
109.75
98.20
83.58
68.02
53.29
40.27
28.88
18.45
8.28
-2.09
-12.85
-24.06
-35.81
-48.11
-60.66
-72.82
-83.53
-91.69
-96.36
-97.22
-94.55
-89.24
-82.45
-75.29
-68.52
-62.39
-56.65
-50.77
-44.36
-37.42
-30.57
-24.84
-21.22
-20.18
-21.32
-23.49
-25.07
-24.54
-20.80
-13.42
-2.63
10.87
26.06
41.83
57.22
71.57
84.66
96.60
107.66
117.95
127.19
134.85
140.40
143.68
145.10
145.53
145.90
146.75
147.96
148.87
148.51
146.16
141.58
135.25
128.17
121.56
116.45
113.23
111.49
110.05
107.27
101.59
91.98
78.33
61.49
43.07
24.96
8.84
-4.17
-13.76
-20.29
-24.49
-27.22
-29.14
-30.79
-32.70
-35.59
-40.49
-48.41
-59.97
-74.87
-91.59
-107.52
-119.48
-124.57
-121.08
-109.12
-90.79
-69.70
-50.06
-35.53
-28.31
-28.70
-35.35
-45.91
-57.83
-68.98
-77.98
-84.12
-87.22
-87.49
-85.31
-81.24
-75.89
-69.74
-63.16
-56.30
-49.22
-41.99
-34.80
-28.07
-22.52
-19.08
-18.66
-21.72
-27.79
-35.33
-41.99
-45.39
-44.01
-37.76
-27.86
-16.24
-4.73
5.57
14.57
22.97
31.71
41.39
51.59
60.59
65.43
62.48
48.58
22.44
-14.39
-57.30
-99.53
-134.01
-155.27
-160.94
-152.39
-134.24
-112.96
-94.81
-84.02
-81.82
-86.58
-95.01
-103.88
-111.22
-116.80
-121.54
-126.59
-132.38
-138.20
-142.32
-142.44
-136.34
-122.54
-100.91
-73.00
-41.69
-10.17
19.01
44.77
67.34
87.25
104.22
116.53
121.35
115.95
99.28
72.91
40.89
8.72
-18.21
-36.02
-43.33
-41.29
-32.91
-21.59
-9.87
1.52
13.47
27.72
45.83
68.56
95.73
126.33
158.58
189.80
216.32
233.85
238.54
228.41
204.27
169.76
130.31
91.59
58.18
33.04
17.37
10.81
11.59
16.70
22.25
24.23
19.55
6.74
-13.73
-39.56
-66.96
-91.08
-106.88
-110.20
-99.17
-75.22
-42.93
-8.72
21.44
44.00
58.57
66.87
70.97
71.72
68.24
58.96
43.04
21.60
-2.33
-24.79
-42.64
-54.69
-62.00
-67.10
-72.30
-78.26
-83.63
-85.72
-82.16
-72.37
-58.06
-42.57
-29.48
-21.10
-17.88
-18.63
-21.49
-24.92
-28.37
-32.24
-37.40
-44.53
-53.55
-63.45
-72.56
-79.17
-82.25
-81.78
-78.67
-74.10
-68.89
-63.07
-56.10
-47.38
-36.73
-24.62
-11.99
0.05
10.58
18.83
24.12
25.76
23.11
16.02
5.27
-7.07
-17.96
-24.36
-24.40
-18.13
-7.57
4.22
14.41
21.30
24.59
24.91
23.15
19.96
15.78
10.99
6.15
1.86
-1.56
-4.39
-7.42
-11.66
-17.67
-25.16
-32.79
-38.59
-40.69
-38.21
-31.82
-23.48
-15.63
-9.97
-6.80
-4.95
-2.70
1.19
6.73
12.65
17.12
18.42
15.48
8.01
-3.59
-18.00
-32.75
-44.35
-49.02
-44.17
-29.62
-8.00
16.30
38.90
57.14
70.58
80.25
87.29
91.91
93.52
91.50
86.16
78.90
71.52
65.11
59.42
52.98
44.06
31.70
16.26
-0.63
-16.65
-29.53
-37.68
-40.39
-37.91
-31.17
-21.44
-9.96
2.37
15.09
28.08
41.29
54.47
66.99
77.86
85.93
90.05
89.52
84.44
75.90
65.93
57.15
52.08
52.36
58.00
67.17
76.68
82.95
83.27
76.74
64.55
49.47
34.70
22.70
14.46
9.54
6.67
4.60
2.63
0.54
-1.87
-5.08
-9.87
-16.75
-25.40
-34.60
-42.76
-48.72
-52.43
-54.99
-57.98
-62.50
-68.61
-75.37
-81.50
-86.19
-89.57
-92.51
-96.07
-100.71
-105.89
-110.13
-111.47
-108.19
-99.54
-85.96
-69.09
-51.13
-34.12
-19.36
-7.20
2.60
10.43
16.38
20.19
21.62
20.74
18.23
15.13
12.52
11.04
10.68
10.86
10.77
9.71
7.30
3.61
-0.97
-5.77
-10.00
-12.87
-13.78
-12.43
-8.88
-3.51
3.18
10.75
18.98
27.68
36.54
44.94
52.01
56.87
59.12
58.97
57.24
54.88
52.59
50.50
48.26
45.32
41.29
36.04
29.68
22.43
14.52
6.31
-1.61
-8.34
-12.94
-14.69
-13.43
-9.66
-4.35
1.33
6.40
10.25
12.63
13.47
12.82
10.68
7.21
2.77
-1.99
-6.34
-9.67
-11.72
-12.74
-13.35
-14.28
-16.15
-19.32
-23.82
-29.32
-35.19
-40.49
-44.12
-45.08
-42.74
-37.08
-28.58
-18.11
-6.67
4.78
15.37
24.33
30.98
34.86
35.87
34.34
30.93
26.47
21.73
17.31
13.54
10.51
8.10
6.00
3.75
0.91
-2.78
-7.17
-11.66
-15.24
-16.78
-15.34
-10.52
-2.60
7.52
18.60
29.34
38.79
46.36
51.89
55.41
57.06
56.97
55.39
52.62
49.11
45.35
41.73
38.44
35.39
32.30
28.79
24.62
19.75
14.36
8.78
3.48
-1.05
-4.29
-5.74
-5.06
-2.13
2.79
9.03
15.67
21.71
26.36
29.27
30.46
30.32
29.30
27.83
26.21
24.61
23.20
22.13
21.51
21.34
21.53
21.87
22.11
22.05
21.56
20.63
19.41
18.23
17.52
17.81
19.47
22.56
26.86
31.91
37.24
42.42
47.13
51.03
53.67
54.54
53.30
50.00
45.14
39.62
34.36
30.04
26.86
24.59
22.69
20.61
17.97
14.76
11.28
8.14
5.98
5.42
6.74
9.88
14.41
19.70
24.99
29.64
33.16
35.24
35.73
34.57
31.83
27.70
22.53
16.76
10.80
4.90
-0.92
-6.92
-13.41
-20.69
-28.85
-37.72
-46.90
-55.75
-63.48
-69.23
-72.23
-72.11
-69.11
-64.08
-58.27
-52.87
-48.66
-45.79
-43.97
-42.74
-41.79
-41.09
-40.79
-40.99
-41.72
-42.83
-44.12
-45.37
-46.41
-47.05
-47.30
-47.54
-48.61
-51.75
-57.99
-67.50
-79.10
-90.52
-99.06
-102.67
-100.55
-93.12
-81.47
-66.77
-50.05
-32.35
-15.10
0.27
12.93
23.32
33.43
45.70
61.42
79.29
95.45
105.21
105.45
96.35
81.26
65.03
51.65
42.85
38.24
36.52
36.75
38.78
42.61
47.53
51.82
53.28
50.38
43.03
32.66
21.37
10.97
2.34
-4.53
-9.89
-14.08
-17.00
-18.33
-18.06
-16.58
-14.81
-13.94
-15.05
-18.66
-24.63
-32.02
-39.33
-44.89
-47.13
-44.96
-38.08
-27.06
-13.43
0.77
13.48
23.15
29.08
31.38
30.62
27.50
22.60
16.38
9.34
2.09
-4.79
-10.92
-16.37
-21.55
-27.04
-33.25
-40.19
-47.28
-53.69
-58.43
-60.76
-60.34
-57.30
-52.03
-45.08
-36.94
-28.04
-18.82
-9.85
-1.83
4.42
8.35
9.80
9.19
7.26
4.86
2.53
0.39
-1.73
-4.13
-7.01
-10.39
-14.18
-18.19
-22.20
-25.87
-28.78
-30.44
-30.51
-28.94
-26.06
-22.52
-18.99
-16.02
-13.85
-12.54
-12.08
-12.50
-13.84
-16.00
-18.63
-21.07
-22.63
-22.81
-21.62
-19.52
-17.25
-15.52
-14.70
-14.80
-15.45
-16.13
-16.16
-14.85
-11.54
-5.76
2.51
12.73
23.85
34.55
43.59
50.16
53.93
55.02
53.75
50.61
46.16
40.99
35.76
30.97
26.85
23.23
19.58
15.27
9.92
3.58
-3.14
-9.34
-14.12
-16.88
-17.58
-16.64
-14.73
-12.53
-10.47
-8.66
-6.95
-5.15
-3.11
-0.86
1.36
3.22
4.43
4.81
4.39
3.38
2.03
0.53
-1.00
-2.57
-4.27
-6.20
-8.47
-11.04
-13.68
-15.94
-17.20
-16.85
-14.55
-10.43
-5.04
0.87
6.67
12.04
16.97
21.50
25.55
28.90
31.37
33.07
34.47
36.27
38.97
42.61
46.69
50.33
52.66
53.08
51.45
48.03
43.45
38.58
34.43
31.96
31.86
34.38
39.29
45.87
53.18
60.24
66.28
70.74
73.41
74.42
74.20
73.38
72.66
72.57
73.22
74.19
74.56
73.13
68.72
60.50
48.14
31.94
12.77
-8.09
-29.18
-49.09
-66.76
-81.60
-93.55
-102.87
-110.00
-115.26
-118.93
-121.18
-122.32
-122.89
-123.58
-125.01
-127.44
-130.46
-133.14
-134.29
-132.90
-128.50
-121.16
-111.36
-99.66
-86.55
-72.44
-57.78
-42.92
-27.98
-12.74
3.12
19.53
35.62
49.69
59.84
64.95
65.39
62.93
59.90
58.03
57.75
58.31
58.48
57.44
55.15
52.21
49.26
46.61
44.19
41.64
38.66
35.03
30.59
25.17
18.63
10.96
2.62
-5.08
-9.83
-8.58
1.50
21.70
50.83
84.97
118.40
145.11
160.28
161.14
147.13
119.59
81.38
36.55
-9.91
-52.74
-87.39
-110.99
-122.92
-124.69
-119.15
-109.53
-98.63
-88.52
-80.39
-74.58
-70.76
-68.19
-66.04
-63.68
-60.84
-57.57
-54.12
-50.72
-47.49
-44.51
-41.84
-39.75
-38.51
-38.34
-39.14
-40.34
-41.17
-40.96
-39.49
-37.12
-34.58
-32.58
-31.43
-30.96
-30.66
-29.91
-28.31
-25.66
-21.94
-17.22
-11.60
-5.28
1.41
8.03
14.03
18.86
22.00
23.12
22.12
19.30
15.23
10.64
6.15
2.12
-1.43
-4.66
-7.91
-11.50
-15.78
-21.01
-27.25
-34.23
-41.22
-47.15
-50.85
-51.44
-48.72
-43.26
-36.29
-29.31
-23.66
-20.10
-18.66
-18.77
-19.60
-20.43
-20.93
-21.22
-21.68
-22.56
-23.79
-24.80
-24.90
-23.60
-21.00
-17.87
-15.27
-13.99
-13.96
-14.08
-12.48
-7.21
3.32
19.78
41.92
68.50
97.27
125.21
148.90
165.34
172.74
171.27
162.98
151.18
139.13
129.11
121.94
117.29
114.41
113.11
114.25
119.70
131.36
149.74
172.53
194.37
207.86
205.95
184.53
144.17
90.06
30.16
-27.33
-76.29
-113.67
-139.15
-154.01
-159.98
-158.76
-151.85
-140.82
-127.44
-113.74
-101.76
-93.20
-88.70
-87.37
-86.66
-82.91
-72.56
-53.43
-25.66
8.16
43.64
75.71
99.73
112.44
112.31
99.80
77.21
48.34
17.69
-10.69
-34.31
-52.87
-67.85
-81.34
-94.66
-107.66
-118.98
-127.05
-131.32
-132.65
-132.93
-134.11
-137.29
-142.38
-148.39
-153.96
-157.86
-159.05
-156.57
-149.61
-137.69
-121.00
-100.63
-78.43
-56.55
-36.94
-20.84
-8.70
-0.20
5.40
8.97
11.37
13.29
15.37
18.10
21.82
26.61
32.19
37.89
42.81
45.95
46.43
43.72
37.78
29.31
19.75
11.10
5.39
4.10
7.65
15.25
25.30
35.85
45.27
52.40
56.68
57.92
56.22
51.99
45.89
38.85
31.81
25.55
20.39
16.24
12.65
9.15
5.35
1.04
-3.87
-9.45
-15.70
-22.39
-28.89
-34.14
-36.87
-36.11
-31.56
-23.79
-14.06
-3.86
5.53
13.34
19.25
23.25
25.40
25.80
24.54
21.85
18.07
13.57
8.71
3.71
-1.28
-6.18
-10.87
-15.18
-19.00
-22.42
-25.88
-30.18
-36.10
-43.81
-52.42
-59.78
-63.10
-59.77
-48.46
-29.47
-4.45
24.35
54.90
85.56
114.72
140.37
160.08
171.78
174.60
169.52
159.01
146.11
133.28
121.84
112.07
103.75
96.65
90.56
85.02
78.97
70.85
59.25
43.89
26.33
9.90
-1.24
-3.70
3.49
18.14
35.51
50.05
57.53
56.54
48.44
36.03
21.88
7.29
-7.67
-23.17
-38.68
-52.68
-63.27
-69.21
-70.63
-68.98
-66.44
-64.86
-65.13
-67.03
-69.57
-71.44
-71.46
-68.92
-63.61
-55.95
-46.88
-37.67
-29.70
-24.00
-20.87
-19.61
-18.60
-15.78
-9.41
1.25
15.57
31.81
47.76
61.49
71.99
79.29
84.19
87.73
90.72
93.47
95.96
98.12
100.05
102.04
104.35
106.99
109.48
111.07
111.16
109.55
106.61
102.93
98.81
93.83
86.84
76.46
61.89
43.43
22.58
1.50
-17.80
-34.13
-47.38
-58.28
-67.92
-77.23
-86.71
-96.37
-105.84
-114.44
-121.28
-125.33
-125.69
-122.06
-115.03
-106.19
-97.58
-90.87
-86.64
-84.06
-81.32
-76.55
-68.73
-58.14
-46.14
-34.45
-24.41
-16.54
-10.72
-6.53
-3.59
-1.56
0.01
1.71
4.25
8.13
13.38
19.51
25.76
31.55
36.76
41.82
47.30
53.51
60.19
66.60
71.97
76.04
79.43
83.43
89.48
98.41
109.97
122.65
134.17
142.07
144.23
139.25
126.57
106.55
80.53
50.74
20.09
-8.44
-32.41
-50.55
-62.89
-70.57
-75.24
-78.52
-81.58
-85.03
-89.07
-93.54
-98.18
-102.66
-106.64
-109.67
-111.26
-110.80
-107.79
-102.00
-93.65
-83.40
-72.15
-60.81
-50.09
-40.50
-32.43
-26.20
-22.00
-19.58
-18.10
-16.29
-12.73
-6.58
2.13
12.46
23.02
32.58
40.50
46.87
52.23
57.33
62.80
69.05
76.17
83.73
90.78
95.93
97.70
95.18
88.43
78.61
67.50
56.93
48.20
41.97
38.35
37.24
38.40
41.38
45.47
49.73
53.40
56.22
58.59
61.32
65.03
69.72
74.58
78.29
79.58
77.85
73.42
67.51
61.83
57.91
56.51
57.18
58.40
58.15
54.92
48.53
40.55
33.73
30.90
33.57
41.11
50.92
59.30
62.90
59.91
50.62
37.10
22.20
8.41
-3.23
-13.42
-24.15
-37.63
-55.18
-76.39
-99.21
-120.65
-137.90
-149.11
-153.61
-151.67
-143.98
-131.51
-115.57
-98.18
-81.90
-69.32
-62.08
-60.23
-61.97
-64.38
-64.46
-60.32
-51.73
-40.00
-27.37
-15.98
-7.14
-0.87
3.95
9.13
16.53
27.62
43.01
62.42
84.70
107.91
129.52
146.40
155.14
152.39
135.75
104.62
60.98
9.31
-44.26
-93.55
-133.89
-162.91
-180.60
-188.65
-189.81
-187.67
-186.58
-191.10
-204.59
-227.69
-257.39
-287.51
-311.05
-322.82
-321.27
-308.52
-288.48
-264.65
-238.63
-210.14
-178.33
-143.08
-105.60
-67.64
-30.39
6.20
43.02
80.39
116.57
147.19
166.49
169.50
154.36
123.28
81.84
36.87
-5.59
-41.39
-68.22
-84.74
-90.28
-85.14
-71.21
-52.10
-32.41
-16.16
-5.21
1.59
7.94
18.62
37.48
65.99
102.52
143.00
182.25
215.74
240.76
256.67
264.22
264.37
257.49
243.19
221.04
191.41
156.12
118.26
81.41
48.81
22.59
3.37
-9.81
-19.24
-27.86
-38.34
-51.99
-67.96
-83.30
-93.96
-96.61
-90.11
-76.25
-58.99
-42.94
-31.65
-26.48
-26.29
-28.04
-27.96
-23.11
-12.68
1.17
13.69
19.00
12.48
-7.11
-36.73
-69.93
-99.19
-118.67
-125.98
-122.22
-110.64
-94.64
-76.55
-57.40
-37.81
-18.86
-2.35
9.78
16.53
18.63
18.37
18.48
20.54
24.18
26.98
25.68
17.69
2.45
-18.14
-40.17
-58.95
-70.45
-72.51
-65.26
-50.79
-32.13
-12.08
7.52
25.86
42.61
57.28
68.87
76.24
78.61
76.11
69.73
60.89
50.83
40.20
29.03
16.93
3.51
-11.30
-26.88
-41.94
-54.59
-62.87
-65.31
-61.55
-52.45
-39.78
-25.66
-11.76
0.89
11.98
21.45
29.17
34.76
37.75
37.79
34.93
29.69
22.91
15.65
8.87
3.30
-0.73
-3.41
-5.40
-7.59
-10.72
-15.00
-19.88
-24.18
-26.41
-25.32
-20.29
-11.44
0.31
13.62
26.88
38.49
47.06
51.60
51.74
47.81
40.76
31.87
22.39
13.18
4.58
-3.52
-11.50
-19.74
-28.43
-37.30
-45.59
-52.02
-54.96
-52.94
-45.16
-31.94
-14.81
3.95
22.07
37.87
50.74
60.77
68.36
73.73
76.72
77.06
74.71
70.06
63.88
56.89
49.47
41.47
32.38
21.65
9.08
-4.92
-19.29
-32.52
-42.94
-49.13
-50.24
-46.05
-36.98
-24.00
-8.41
8.22
24.19
37.77
47.41
52.11
51.74
47.25
40.54
33.95
29.50
28.12
29.35
31.44
32.11
29.48
22.73
12.38
0.25
-10.89
-17.70
-17.10
-7.30
11.05
34.34
56.77
72.39
77.65
73.14
63.60
55.83
55.64
65.14
81.83
99.88
112.88
116.49
109.84
95.14
76.00
55.50
35.07
14.55
-6.84
-29.11
-50.88
-69.69
-83.10
-89.89
-90.59
-87.17
-81.93
-76.51
-71.47
-66.51
-61.21
-55.62
-50.46
-46.82
-45.52
-46.60
-49.21
-51.89
-53.23
-52.54
-50.08
-47.11
-45.45
-46.76
-51.88
-60.24
-69.80
-77.47
-80.05
-75.29
-62.78
-44.15
-22.67
-2.14
14.23
24.72
29.41
29.67
27.42
24.31
21.26
18.38
15.24
11.30
6.16
-0.22
-7.62
-15.61
-23.59
-31.02
-37.53
-42.98
-47.19
-49.90
-50.79
-49.75
-46.99
-42.69
-36.68
-28.04
-15.11
3.80
29.28
59.71
91.29
119.00
138.81
148.44
147.73
138.15
122.17
102.93
84.11
70.00
65.03
73.85
98.42
136.24
180.33
221.32
250.22
260.67
250.12
219.94
177.05
129.59
84.17
44.56
12.34
-12.03
-28.94
-39.26
-43.85
-39.69
-24.71
-0.71
26.09
47.90
59.16
58.49
49.37
38.92
40.06
62.54
107.81
168.60
233.70
293.35
341.49
376.23
370.48
312.14
213.31
104.66
12.97
-51.94
-92.93
-117.51
-132.39
-142.16
-144.60
-137.50
-122.32
-103.93
-88.58
-79.53
-77.23
-80.35
-87.40
-93.10
-93.25
-87.08
-77.54
-69.00
-65.12
-69.13
-79.82
-97.50
-120.16
-145.50
-171.29
-194.59
-210.50
-212.57
-195.94
-160.45
-112.73
-62.70
-21.10
4.28
11.09
3.01
-12.34
-27.00
-35.35
-35.48
-27.48
-12.81
6.18
26.14
42.92
52.21
50.39
35.79
9.27
-25.23
-61.58
-92.88
-113.26
-119.41
-111.59
-93.63
-71.95
-53.85
-44.85
-46.88
-57.63
-71.77
-83.31
-88.30
-86.42
-80.60
-75.33
-74.24
-78.36
-86.01
-94.04
-99.31
-99.70
-93.97
-81.37
-61.55
-35.24
-5.14
23.93
46.12
56.56
53.38
38.59
17.25
-4.43
-21.25
-30.37
-31.48
-26.17
-16.98
-6.67
2.03
6.69
5.64
-1.42
-12.83
-24.83
-32.33
-30.52
-16.95
7.08
36.53
64.38
84.29
92.76
89.84
78.13
60.98
41.02
19.91
-1.02
-20.00
-34.83
-43.51
-45.28
-41.08
-33.17
-24.30
-16.60
-11.16
-8.11
-7.00
-7.06
-7.49
-7.68
-7.34
-6.85
-7.21
-9.96
-16.52
-27.55
-42.19
-57.76
-70.05
-74.24
-66.37
-44.84
-11.32
29.47
70.98
107.04
133.52
149.16
155.12
153.75
147.74
139.66
131.93
126.66
124.90
125.69
125.71
120.33
105.68
81.03
49.58
17.34
-9.58
-27.73
-37.32
-41.38
-43.50
-45.88
-48.77
-51.40
-53.44
-55.87
-60.66
-69.43
-82.04
-96.00
-107.46
-112.78
-110.37
-101.45
-89.67
-79.46
-74.20
-74.84
-79.79
-85.68
-88.66
-85.70
-75.10
-56.76
-31.99
-3.19
26.42
53.42
74.79
88.66
94.55
93.35
86.71
76.27
63.29
48.59
32.97
17.47
3.40
-8.13
-16.66
-22.59
-26.81
-30.05
-32.32
-32.79
-30.42
-24.69
-16.25
-6.84
1.31
6.33
7.41
4.99
0.50
-4.23
-7.53
-8.31
-6.27
-1.87
3.85
9.56
14.02
16.33
16.06
13.42
9.15
4.43
0.72
-0.64
1.29
6.62
14.58
23.65
31.98
37.91
40.36
39.02
34.25
26.88
17.97
8.63
-0.18
-7.90
-14.49
-20.61
-27.23
-35.17
-44.49
-53.99
-61.35
-63.70
-58.63
-45.18
-24.48
0.41
25.19
45.63
58.69
63.26
60.31
52.18
41.72
31.36
22.55
15.66
10.20
5.29
-0.12
-7.01
-16.14
-27.76
-41.38
-55.50
-67.91
-76.39
-79.65
-78.02
-73.20
-67.42
-62.13
-57.25
-51.31
-42.34
-28.96
-10.97
10.68
34.24
57.45
77.49
90.88
94.00
84.26
61.55
29.02
-7.42
-40.90
-65.69
-78.75
-80.05
-71.76
-57.02
-39.08
-20.81
-4.71
7.25
13.84
14.87
11.21
4.53
-3.19
-10.14
-14.91
-16.40
-13.81
-6.64
5.00
20.18
37.02
53.05
65.77
73.37
75.03
71.16
63.30
53.83
45.28
39.58
37.16
36.78
36.21
33.49
28.17
21.79
17.04
16.13
19.41
24.83
28.94
28.59
22.27
10.60
-4.23
-19.51
-32.81
-42.25
-46.44
-44.56
-36.64
-23.90
-8.72
5.80
16.94
23.27
25.11
24.08
22.05
19.93
17.29
12.96
6.10
-2.86
-12.07
-18.94
-21.40
-18.85
-12.66
-5.63
-1.01
-1.25
-7.04
-17.10
-28.71
-38.81
-45.26
-47.49
-46.58
-44.38
-42.46
-41.54
-41.58
-42.37
-44.23
-48.04
-54.54
-63.24
-71.86
-76.47
-72.42
-56.04
-26.11
15.19
62.47
108.46
145.95
169.84
178.28
172.75
156.94
135.16
111.04
86.88
63.81
42.39
23.09
6.46
-7.12
-17.76
-26.17
-33.50
-40.75
-48.20
-55.31
-60.84
-63.47
-62.56
-58.46
-52.35
-45.75
-39.64
-34.06
-28.19
-20.90
-11.45
0.04
12.54
24.57
34.71
42.00
46.03
46.62
43.61
36.79
26.14
12.21
-3.60
-19.19
-32.31
-41.27
-45.50
-45.62
-42.93
-38.69
-33.45
-27.02
-18.73
-8.05
4.80
18.79
32.33
43.72
51.67
55.49
55.06
50.73
43.25
33.72
23.69
14.89
8.91
6.70
8.22
12.39
17.42
21.41
22.89
21.26
16.83
10.61
3.90
-2.09
-6.48
-8.94
-9.64
-9.15
-8.35
-8.22
-9.63
-13.09
-18.51
-25.07
-31.29
-35.46
-36.26
-33.29
-27.24
-19.72
-12.59
-7.28
-4.37
-3.55
-3.90
-4.34
-4.02
-2.61
-0.23
2.57
5.11
6.70
6.99
5.96
3.89
1.29
-1.31
-3.36
-4.37
-3.93
-1.93
1.37
5.19
8.34
9.61
8.29
4.51
-0.76
-6.00
-9.90
-11.85
-12.21
-12.05
-12.64
-14.84
-18.72
-23.73
-28.93
-33.43
-36.58
-37.90
-37.04
-33.69
-27.85
-20.10
-11.74
-4.41
0.35
1.85
0.40
-2.78
-6.18
-8.62
-9.56
-9.16
-7.91
-6.39
-5.06
-4.19
-3.95
-4.33
-5.10
-5.85
-6.00
-5.02
-2.66
0.99
5.45
9.94
13.55
15.43
15.13
12.65
8.54
3.65
-1.11
-5.07
-7.90
-9.51
-10.00
-9.52
-8.34
-6.79
-5.11
-3.31
-1.07
2.14
6.68
12.38
18.36
23.31
26.05
26.05
23.65
19.81
15.62
11.82
8.67
6.13
4.16
2.88
2.43
2.85
3.90
5.07
5.90
6.31
6.71
7.84
10.36
14.41
19.45
24.47
28.37
30.34
30.07
27.62
23.26
17.26
9.80
1.18
-8.22
-17.81
-26.86
-34.57
-40.19
-43.12
-42.96
-39.68
-33.63
-25.57
-16.51
-7.65
-0.01
5.66
8.96
9.94
8.90
6.38
3.00
-0.70
-4.25
-7.32
-9.74
-11.45
-12.57
-13.39
-14.33
-15.70
-17.60
-19.66
-21.07
-20.73
-17.63
-11.21
-1.65
10.02
22.16
32.91
40.68
44.66
44.94
42.36
38.09
33.11
27.88
22.36
16.18
9.04
0.86
-8.11
-17.30
-25.90
-32.81
-36.83
-36.81
-32.11
-22.91
-10.41
3.42
16.32
26.42
32.62
34.82
33.66
30.14
25.36
20.15
15.08
10.40
6.09
1.87
-2.62
-7.70
-13.38
-19.31
-24.77
-28.99
-31.36
-31.69
-30.08
-26.80
-22.06
-15.90
-8.33
0.54
10.29
20.04
28.47
34.10
35.51
31.94
23.62
11.82
-1.44
-13.95
-23.92
-30.31
-32.86
-31.73
-27.34
-20.27
-11.35
-1.74
7.24
14.52
19.53
22.37
23.48
23.32
22.17
20.16
17.51
14.57
11.76
9.31
7.11
4.82
2.19
-0.65
-3.15
-4.62
-4.58
-3.08
-0.65
1.99
4.26
5.92
7.06
7.85
8.43
8.81
8.94
8.78
8.29
7.47
6.30
4.66
2.37
-0.87
-5.19
-10.42
-15.92
-20.64
-23.41
-23.38
-20.42
-15.25
-9.24
-3.88
-0.33
0.86
-0.21
-3.01
-6.91
-11.25
-15.40
-18.71
-20.60
-20.67
-18.97
-16.02
-12.60
-9.57
-7.39
-6.05
-5.15
-4.12
-2.49
-0.11
2.82
5.92
8.67
10.70
11.74
11.76
10.97
9.78
8.69
8.18
8.58
9.82
11.46
12.70
12.67
10.84
7.36
3.12
-0.44
-1.84
-0.21
4.41
11.02
18.03
23.79
27.10
27.44
24.91
20.12
13.89
7.11
0.65
-4.73
-8.54
-10.66
-11.41
-11.45
-11.53
-12.17
-13.43
-14.86
-15.70
-15.25
-13.12
-9.46
-4.84
-0.02
4.25
7.47
9.44
10.19
9.94
8.93
7.37
5.36
2.99
0.27
-2.79
-6.20
-9.97
-13.96
-17.77
-20.68
-21.82
-20.41
-16.20
-9.70
-2.10
5.13
10.71
13.99
15.08
14.50
12.93
10.84
8.48
5.93
3.34
0.93
-1.07
-2.57
-3.67
-4.56
-5.31
-5.63
-4.98
-2.78
1.22
6.72
12.93
18.88
23.74
27.08
28.86
29.31
28.67
27.17
25.00
22.37
19.42
16.14
12.35
7.69
1.91
-4.95
-12.44
-19.68
-25.46
-28.60
-28.23
-24.12
-16.91
-7.98
0.90
8.02
12.32
13.66
12.66
10.40
7.91
5.89
4.56
3.75
3.06
2.07
0.44
-2.00
-5.17
-8.75
-12.18
-14.78
-15.92
-15.17
-12.43
-8.07
-2.77
2.54
7.03
10.08
11.54
11.57
10.57
8.90
6.78
4.35
1.71
-0.98
-3.55
-5.92
-8.19
-10.48
-12.82
-14.86
-16.00
-15.51
-12.88
-8.09
-1.65
5.63
12.81
19.04
23.55
25.77
25.35
22.35
17.37
11.49
5.90
1.55
-1.18
-2.53
-3.11
-3.59
-4.36
-5.51
-6.87
-8.17
-9.22
-9.85
-9.99
-9.67
-8.95
-7.99
-6.98
-6.13
-5.66
-5.77
-6.53
-7.91
-9.74
-11.71
-13.53
-15.07
-16.42
-17.86
-19.68
-21.87
-24.01
-25.27
-24.75
-21.91
-16.89
-10.49
-3.97
1.47
5.10
6.77
6.79
5.63
3.66
1.13
-1.77
-4.77
-7.57
-9.90
-11.68
-13.14
-14.60
-16.28
-17.97
-19.05
-18.63
-16.02
-11.00
-4.03
3.88
11.51
17.80
22.12
24.36
24.80
23.95
22.31
20.27
18.12
16.00
13.94
11.92
9.78
7.31
4.34
0.86
-2.78
-5.92
-7.75
-7.55
-5.04
-0.52
5.18
10.99
15.90
19.26
20.84
20.84
19.62
17.62
15.18
12.61
10.12
7.89
5.96
4.29
2.64
0.75
-1.52
-4.02
-6.23
-7.43
-6.92
-4.46
-0.38
4.48
9.07
12.56
14.63
15.49
15.72
15.89
16.30
16.79
16.91
16.15
14.23
11.26
7.66
3.88
0.22
-3.28
-6.66
-9.84
-12.40
-13.78
-13.46
-11.37
-8.05
-4.40
-1.43
0.22
0.39
-0.63
-2.37
-4.42
-6.51
-8.50
-10.21
-11.47
-12.16
-12.35
-12.36
-12.61
-13.41
-14.68
-15.91
-16.30
-15.11
-12.00
-7.18
-1.36
4.48
9.48
13.04
14.95
15.33
14.49
12.83
10.74
8.50
6.36
4.45
2.80
1.30
-0.22
-1.93
-3.86
-5.80
-7.28
-7.75
-6.71
-3.95
0.40
5.71
11.07
15.44
17.95
18.13
16.17
12.88
9.48
7.14
6.47
7.18
8.16
7.96
5.44
0.40
-6.36
-13.20
-18.35
-20.58
-19.71
-16.65
-12.95
-10.28
-9.60
-10.98
-13.51
-15.77
-16.50
-15.11
-12.06
-8.73
-7.02
-8.86
-15.48
-26.72
-40.45
-52.60
-57.80
-51.06
-29.61
5.32
48.13
90.01
121.61
136.03
131.01
109.39
77.54
42.80
11.06
-14.52
-33.28
-45.86
-53.10
-55.47
-53.41
-47.95
-41.11
-35.52
-33.44
-35.89
-42.10
-49.93
-56.78
-60.60
-60.54
-57.01
-51.24
-44.68
-38.48
-33.21
-29.02
-25.77
-23.41
-22.10
-22.19
-23.99
-27.56
-32.59
-38.42
-44.29
-49.68
-54.52
-59.23
-64.61
-71.28
-79.34
-88.06
-95.92
-101.02
-101.65
-96.76
-86.21
-70.59
-50.82
-27.96
-3.08
22.49
47.03
68.44
84.73
94.72
98.48
97.45
93.88
89.87
86.56
83.75
80.23
74.59
66.17
55.51
44.31
34.76
28.67
26.93
29.38
35.25
43.66
54.08
66.14
79.34
92.63
104.40
112.97
117.19
117.11
113.85
109.15
104.43
100.21
96.04
91.07
84.88
78.05
72.19
69.45
71.52
78.77
90.07
102.81
113.84
120.36
120.65
114.46
103.06
89.02
75.73
66.67
64.45
69.79
81.10
94.68
105.95
110.97
107.79
96.95
80.89
62.69
44.78
28.06
11.83
-5.73
-26.76
-52.86
-84.42
-120.37
-158.26
-194.81
-226.83
-251.99
-269.12
-278.30
-280.52
-277.33
-270.61
-262.41
-254.73
-249.10
-246.11
-244.97
-243.78
-240.17
-232.23
-219.13
-201.19
-179.44
-154.77
-127.47
-97.20
-63.45
-25.87
15.52
60.41
108.29
158.15
207.94
254.30
293.07
320.56
334.96
337.04
329.54
315.71
297.79
276.60
252.04
224.37
195.04
166.65
141.89
122.37
107.82
96.19
84.52
70.03
51.02
27.42
0.72
-26.34
-50.29
-67.69
-75.75
-72.91
-59.22
-36.53
-8.39
20.32
44.34
59.09
61.87
52.54
33.60
9.29
-15.57
-36.85
-51.93
-60.07
-62.10
-59.91
-55.79
-51.82
-49.50
-49.53
-51.82
-55.64
-59.95
-63.66
-65.95
-66.27
-64.42
-60.48
-54.77
-47.72
-39.94
-32.03
-24.56
-17.92
-12.33
-7.85
-4.47
-2.15
-0.78
-0.21
-0.12
-0.15
0.03
0.61
1.52
2.50
3.13
2.98
1.73
-0.74
-4.26
-8.34
-12.19
-14.90
-15.64
-13.96
-9.99
-4.43
1.48
6.29
8.67
7.81
3.60
-3.23
-11.35
-19.20
-25.53
-29.76
-32.13
-33.48
-34.79
-36.59
-38.78
-40.62
-41.10
-39.48
-35.56
-29.78
-23.04
-16.35
-10.48
-5.92
-2.88
-1.39
-1.48
-3.16
-6.34
-10.72
-15.79
-20.89
-25.44
-29.06
-31.64
-33.22
-33.83
-33.27
-31.20
-27.35
-21.72
-14.85
-7.75
-1.62
2.56
4.30
3.79
1.74
-0.95
-3.48
-5.39
-6.60
-7.39
-8.18
-9.34
-11.11
-13.55
-16.54
-19.85
-23.11
-25.82
-27.38
-27.15
-24.70
-20.06
-13.74
-6.78
-0.37
4.43
7.09
7.63
6.57
4.62
2.44
0.44
-1.23
-2.60
-3.77
-4.73
-5.41
-5.74
-5.73
-5.53
-5.37
-5.40
-5.47
-5.17
-3.90
-1.16
3.16
8.66
14.44
19.41
22.59
23.46
22.02
18.79
14.49
9.83
5.30
1.07
-2.93
-6.77
-10.44
-13.72
-16.17
-17.21
-16.20
-12.44
-5.29
5.61
20.21
37.77
56.80
75.30
91.28
103.24
110.57
113.66
113.62
112.04
110.39
109.85
111.00
113.73
117.24
120.09
120.57
117.16
109.04
96.53
81.11
65.27
52.00
44.17
43.77
51.05
63.91
77.70
86.06
82.60
63.18
27.66
-19.66
-71.35
-119.49
-158.29
-185.51
-202.29
-211.58
-216.58
-219.74
-222.77
-226.86
-232.60
-239.44
-245.21
-246.44
-239.66
-223.19
-198.35
-169.21
-140.95
-117.76
-101.39
-90.95
-84.00
-78.13
-71.91
-65.11
-58.11
-51.16
-44.06
-36.42
-28.21
-20.21
-13.86
-10.64
-11.18
-14.65
-18.87
-21.12
-19.37
-13.25
-4.19
5.20
12.27
15.41
14.47
10.51
5.10
-0.49
-5.62
-10.32
-14.85
-19.33
-23.73
-27.98
-32.23
-37.06
-43.01
-50.08
-57.19
-62.20
-62.64
-56.74
-44.32
-27.06
-7.88
10.08
24.55
34.48
39.99
41.71
40.25
35.99
29.16
20.10
9.35
-2.57
-15.29
-28.81
-43.32
-58.76
-74.30
-88.18
-97.93
-101.13
-96.41
-84.08
-66.19
-45.87
-26.33
-9.82
2.76
11.67
17.70
21.62
23.78
24.18
22.73
19.35
14.02
6.49
-3.81
-17.79
-36.21
-59.11
-85.15
-111.37
-133.49
-146.80
-147.53
-134.09
-107.95
-73.53
-37.05
-4.81
18.37
30.01
30.06
20.08
2.53
-19.81
-44.08
-67.57
-87.99
-103.96
-115.19
-122.12
-125.31
-124.55
-118.70
-106.07
-85.39
-56.73
-21.76
16.53
54.51
88.75
116.48
135.92
146.53
149.12
145.75
139.29
132.65
127.93
125.83
125.47
124.82
121.51
113.67
100.72
83.70
65.22
48.96
38.81
37.70
46.71
64.60
88.24
113.64
137.09
156.12
169.70
177.80
180.69
178.28
170.06
155.43
134.52
108.55
79.98
52.00
27.89
10.24
0.84
0.30
8.50
24.74
48.04
77.55
112.88
154.49
203.27
259.31
320.34
380.58
431.32
463.24
469.64
448.87
405.01
346.22
281.95
220.26
166.35
122.56
89.04
64.69
47.60
35.41
25.60
15.99
5.23
-6.99
-20.06
-32.89
-44.02
-52.20
-56.60
-57.24
-55.11
-52.07
-50.28
-51.38
-56.02
-63.66
-73.06
-82.86
-92.20
-100.82
-108.91
-116.59
-123.53
-128.78
-130.84
-128.20
-119.87
-105.87
-87.48
-66.94
-47.11
-30.83
-20.26
-16.41
-19.15
-27.38
-39.58
-54.19
-69.55
-83.65
-94.08
-98.63
-96.36
-88.56
-78.73
-71.23
-69.27
-73.09
-79.73
-84.49
-83.32
-74.73
-60.20
-43.11
-27.15
-15.00
-8.15
-7.23
-12.37
-23.14
-38.30
-55.67
-72.61
-86.93
-97.59
-104.97
-110.54
-116.08
-122.72
-130.54
-138.43
-144.48
-146.56
-143.06
-133.41
-118.43
-100.03
-80.79
-63.17
-49.05
-39.31
-33.76
-31.47
-31.16
-31.72
-32.58
-33.71
-35.24
-37.00
-38.34
-38.30
-36.22
-32.07
-26.19
-18.63
-8.55
5.56
24.85
48.87
75.13
100.13
121.19
137.93
152.28
166.96
183.65
202.09
220.73
238.16
254.31
270.17
286.26
301.11
310.94
310.76
296.45
266.52
222.75
169.79
113.86
61.40
17.65
-14.41
-34.55
-45.07
-49.77
-52.33
-55.20
-59.09
-63.34
-66.83
-68.70
-68.58
-66.30
-61.76
-54.97
-46.46
-37.62
-30.52
-27.15
-28.42
-33.52
-39.96
-44.29
-43.45
-35.87
-22.08
-4.44
13.72
29.21
39.91
45.09
45.29
41.81
36.08
29.32
22.34
15.57
9.08
2.66
-4.18
-12.04
-21.45
-32.50
-44.57
-56.24
-65.51
-70.37
-69.36
-62.18
-49.80
-34.34
-18.47
-4.79
4.74
9.22
8.85
4.65
-1.90
-9.34
-16.56
-22.89
-28.11
-32.34
-35.96
-39.54
-43.73
-48.90
-54.96
-61.06
-65.71
-67.18
-64.12
-56.09
-43.80
-28.87
-13.32
0.96
12.66
21.16
26.37
28.53
27.96
24.99
20.07
13.82
7.10
0.90
-4.04
-7.52
-9.96
-12.25
-15.22
-18.94
-22.44
-23.95
-21.52
-13.91
-1.35
14.54
31.32
46.47
58.24
65.87
69.25
68.55
64.40
58.42
53.70
54.07
62.36
78.48
98.78
117.24
128.16
128.73
119.84
105.00
88.04
71.40
55.97
42.13
30.90
24.08
23.12
27.84
36.09
44.54
50.22
51.63
48.47
40.90
29.14
13.37
-5.66
-26.16
-45.62
-61.79
-73.65
-81.95
-88.66
-95.80
-104.37
-113.97
-123.13
-129.88
-131.91
-126.69
-111.98
-87.00
-54.02
-18.94
10.02
25.46
24.11
8.50
-14.23
-35.86
-50.87
-58.31
-60.99
-62.74
-65.82
-70.11
-73.93
-75.88
-75.74
-74.43
-72.74
-70.64
-67.16
-60.99
-51.52
-39.45
-26.68
-15.74
-8.69
-6.50
-8.72
-13.77
-19.67
-24.85
-28.63
-31.42
-34.29
-38.43
-44.67
-53.11
-63.11
-73.38
-82.34
-88.53
-90.97
-89.40
-84.32
-76.81
-68.10
-59.19
-50.65
-42.65
-35.19
-28.37
-22.42
-17.62
-14.14
-11.89
-10.63
-10.06
-10.00
-10.37
-11.15
-12.19
-13.13
-13.27
-11.74
-7.64
-0.31
10.35
23.76
38.66
53.43
66.47
76.62
83.35
86.77
87.39
85.82
82.67
78.41
73.56
68.62
64.13
60.50
57.83
55.83
53.93
51.52
48.32
44.69
41.67
40.62
42.67
48.11
56.08
64.74
71.83
75.30
73.98
67.68
57.11
43.72
29.15
15.10
2.85
-6.89
-14.29
-20.34
-26.55
-34.38
-44.56
-56.63
-68.88
-78.89
-84.45
-84.47
-79.57
-71.81
-63.95
-58.17
-55.30
-54.61
-54.51
-53.52
-51.26
-48.42
-46.43
-46.47
-48.86
-53.09
-57.95
-61.63
-61.53
-54.47
-37.79
-11.22
21.51
52.75
73.18
75.71
59.00
28.43
-6.08
-34.35
-50.10
-52.77
-46.47
-36.98
-28.84
-23.94
-21.97
-21.78
-22.64
-24.63
-28.20
-33.51
-40.02
-46.38
-51.15
-53.41
-53.19
-51.43
-49.34
-47.68
-46.25
-43.90
-39.14
-31.02
-19.74
-6.76
5.72
15.51
21.29
22.91
21.29
17.97
14.41
11.58
9.64
8.12
6.14
2.82
-2.25
-9.02
-16.73
-24.18
-29.93
-32.66
-31.53
-26.51
-18.38
-8.52
1.42
10.02
16.34
20.08
21.30
20.37
17.65
13.55
8.64
3.56
-0.98
-4.54
-7.10
-9.15
-11.41
-14.49
-18.40
-22.38
-25.07
-24.95
-20.92
-12.85
-1.57
11.25
23.67
34.09
41.59
45.97
47.63
47.21
45.34
42.48
38.83
34.42
29.15
22.99
16.14
9.06
2.32
-3.62
-8.64
-12.92
-16.72
-19.99
-22.17
-22.35
-19.70
-13.96
-5.79
3.44
12.09
18.80
22.91
24.50
24.11
22.39
19.77
16.41
12.29
7.50
2.36
-2.63
-6.98
-10.59
-13.85
-17.48
-22.03
-27.45
-32.73
-36.27
-36.51
-32.55
-24.63
-14.02
-2.51
8.12
16.62
22.39
25.38
25.86
24.27
21.09
16.84
12.10
7.44
3.27
-0.26
-3.37
-6.63
-10.57
-15.43
-20.78
-25.54
-28.37
-28.02
-23.77
-15.56
-4.05
9.49
23.26
35.25
43.75
47.85
47.77
44.69
40.21
35.65
31.54
27.62
23.29
18.06
11.84
4.76
-2.95
-11.05
-19.08
-25.99
-30.26
-30.20
-24.73
-13.91
0.86
17.21
32.50
44.57
52.21
55.33
54.64
51.27
46.21
40.02
32.78
24.37
14.76
4.44
-5.62
-14.33
-21.01
-25.84
-29.82
-34.28
-40.16
-47.42
-54.98
-61.05
-63.75
-61.44
-52.97
-37.82
-16.47
9.13
35.38
57.50
70.91
72.89
63.68
46.48
26.09
7.03
-8.01
-18.57
-25.80
-31.23
-35.73
-39.18
-40.86
-39.99
-36.11
-29.26
-19.63
-7.63
6.18
20.94
35.37
47.85
56.83
61.25
60.84
56.25
48.85
40.42
32.61
26.60
22.66
20.14
17.62
13.43
6.43
-3.45
-14.89
-25.64
-33.24
-35.88
-32.92
-24.99
-13.59
-0.62
12.05
22.85
30.53
34.29
33.94
29.95
23.50
16.22
9.71
5.02
2.31
0.91
-0.38
-2.87
-7.53
-14.80
-24.35
-35.02
-44.82
-51.13
-51.42
-44.25
-30.03
-11.20
8.42
24.98
35.92
40.65
40.32
36.89
32.18
27.22
22.37
17.72
13.50
10.09
7.79
6.43
5.34
3.54
0.36
-4.14
-9.01
-12.61
-13.34
-10.21
-3.34
6.10
16.33
25.56
32.59
37.06
39.21
39.63
38.79
36.90
33.90
29.78
24.73
19.23
13.94
9.32
5.45
1.85
-2.24
-7.45
-13.71
-20.13
-25.10
-26.91
-24.45
-17.74
-8.01
2.71
12.33
19.40
23.47
25.06
25.21
24.92
24.67
24.26
22.89
19.58
13.57
4.82
-5.77
-16.40
-24.59
-27.84
-24.29
-13.43
3.49
23.42
42.13
55.37
60.26
56.26
45.44
31.60
18.72
9.43
4.25
1.76
-0.23
-3.47
-8.40
-14.32
-20.04
-24.76
-28.55
-32.09
-36.22
-41.38
-47.32
-53.32
-58.47
-62.00
-63.60
-63.34
-61.57
-58.70
-55.09
-51.02
-46.76
-42.68
-39.27
-37.15
-36.95
-39.13
-43.83
-50.73
-59.14
-68.11
-76.75
-84.53
-91.45
-98.05
-105.13
-113.31
-122.48
-131.62
-138.98
-142.73
-141.61
-135.35
-124.59
-110.26
-92.94
-72.48
-48.14
-19.11
14.91
53.67
96.55
142.85
191.87
242.34
291.92
336.81
372.30
394.08
399.85
390.33
369.11
341.46
312.46
285.65
262.52
242.93
225.94
210.58
196.03
181.56
166.54
150.70
134.66
120.13
109.58
105.17
107.45
114.61
122.64
126.51
121.85
106.26
79.98
45.55
7.09
-30.85
-64.00
-89.00
-103.79
-107.94
-102.66
-90.71
-75.79
-61.74
-51.66
-47.31
-48.85
-54.88
-62.92
-69.93
-73.18
-71.06
-63.69
-52.96
-41.92
-33.60
-29.87
-30.76
-34.82
-39.94
-44.60
-48.31
-51.52
-54.83
-58.23
-60.93
-61.70
-59.68
-54.97
-48.69
-42.52
-37.93
-35.55
-34.97
-35.04
-34.34
-31.86
-27.36
-21.48
-15.60
-11.37
-10.27
-13.11
-19.79
-29.28
-39.78
-49.11
-55.19
-56.53
-52.67
-44.39
-33.57
-22.69
-14.17
-9.70
-9.88
-14.27
-21.76
-30.93
-40.38
-48.82
-55.14
-58.54
-58.74
-56.13
-51.91
-47.78
-45.40
-45.86
-49.21
-54.39
-59.54
-62.57
-61.94
-57.11
-48.70
-38.23
-27.51
-18.04
-10.68
-5.60
-2.53
-1.09
-0.95
-1.78
-3.23
-4.80
-5.97
-6.29
-5.67
-4.48
-3.49
-3.68
-5.80
-9.94
-15.30
-20.19
-22.59
-20.81
-14.23
-3.66
8.90
20.93
30.25
35.64
37.01
35.06
30.83
25.28
19.19
13.14
7.73
3.45
0.66
-0.60
-0.60
0.21
1.39
2.70
4.03
5.44
7.02
8.83
10.95
13.46
16.31
19.24
21.73
23.15
22.96
20.97
17.44
12.97
8.35
4.26
1.20
-0.60
-1.05
-0.16
2.05
5.45
9.66
13.88
16.89
17.36
14.26
7.51
-1.72
-11.20
-18.36
-21.19
-18.97
-12.44
-3.46
5.53
12.19
14.50
11.08
1.42
-13.95
-33.22
-53.59
-71.75
-84.76
-90.81
-89.60
-82.32
-71.14
-58.54
-46.59
-36.53
-28.51
-21.90
-15.62
-8.77
-1.08
7.10
14.97
21.64
26.60
29.74
31.30
31.61
30.88
29.18
26.48
22.62
17.42
10.69
2.27
-7.88
-19.60
-32.56
-46.19
-59.64
-71.79
-81.32
-86.84
-87.32
-82.48
-72.98
-60.41
-46.78
-33.97
-23.33
-15.51
-10.55
-8.23
-8.18
-9.92
-12.89
-16.44
-19.89
-22.75
-24.87
-26.40
-27.66
-29.01
-30.61
-32.36
-33.77
-33.94
-31.68
-25.87
-15.85
-1.92
14.53
31.31
46.03
56.85
62.97
64.59
62.56
57.80
50.97
42.48
32.78
22.54
12.74
4.38
-1.78
-5.60
-7.48
-8.20
-8.52
-8.90
-9.38
-9.53
-8.70
-6.24
-1.79
4.50
11.97
19.59
26.29
31.20
33.96
34.55
33.26
30.43
26.35
21.35
15.79
10.09
4.73
0.09
-3.57
-6.28
-8.30
-10.13
-12.42
-15.77
-20.39
-25.87
-31.14
-34.71
-35.30
-32.33
-26.32
-18.64
-10.97
-4.57
0.18
3.78
7.24
11.49
16.93
23.35
30.13
36.62
42.32
46.91
50.17
51.94
52.01
50.28
46.73
41.49
34.71
26.54
17.22
7.39
-1.76
-8.37
-10.37
-6.12
4.85
21.48
41.40
61.57
79.27
92.78
101.68
106.52
108.36
108.18
106.67
104.30
101.41
98.36
95.46
92.86
90.40
87.69
84.32
79.88
73.94
65.71
54.00
37.51
15.32
-12.58
-45.27
-81.17
-118.46
-155.36
-190.01
-220.22
-243.65
-258.17
-262.83
-258.52
-248.12
-235.93
-226.32
-222.42
-225.08
-232.65
-241.31
-246.17
-242.55
-227.46
-200.44
-163.57
-120.61
-75.66
-32.15
7.32
40.43
64.63
77.19
76.26
62.06
37.64
8.23
-20.42
-43.82
-59.94
-68.98
-72.37
-71.60
-67.68
-61.32
-53.39
-44.90
-36.66
-28.50
-19.10
-6.42
11.31
34.31
60.79
87.18
109.06
122.75
126.66
121.58
110.31
96.55
83.88
75.01
71.11
71.50
73.62
73.61
67.75
54.42
35.50
16.12
2.53
-1.20
4.62
15.14
23.48
24.40
16.78
3.96
-7.89
-12.30
-4.70
16.15
47.36
81.72
109.24
120.59
110.92
82.90
46.37
13.85
-5.16
-8.66
-2.36
4.49
4.79
-2.73
-13.68
-21.37
-20.68
-10.03
8.95
32.73
57.17
77.99
91.39
95.02
89.46
78.55
68.10
62.77
63.53
66.96
67.38
60.27
44.82
24.40
4.75
-8.37
-10.88
-1.34
18.80
44.98
69.84
85.00
83.96
64.96
32.41
-4.79
-37.03
-58.02
-66.82
-66.77
-62.64
-57.90
-53.77
-50.08
-46.93
-45.47
-47.37
-53.45
-62.76
-72.66
-79.84
-82.14
-79.48
-73.92
-68.75
-66.76
-68.88
-73.62
-77.62
-77.02
-69.18
-53.78
-33.02
-10.79
8.84
22.93
30.50
32.38
30.46
26.65
22.16
17.31
11.78
5.17
-2.59
-11.09
-19.74
-27.98
-35.65
-42.86
-49.74
-56.00
-60.78
-62.80
-60.85
-54.36
-43.74
-30.25
-15.67
-1.69
10.42
19.95
26.54
30.08
30.52
27.96
22.78
15.71
7.66
-0.43
-7.89
-14.48
-20.45
-26.49
-33.41
-41.76
-51.43
-61.39
-69.90
-74.94
-74.92
-69.15
-58.02
-42.75
-25.06
-6.69
10.69
25.67
37.07
44.23
47.14
46.40
43.15
38.54
33.39
27.96
22.09
15.47
7.84
-0.82
-10.25
-19.91
-28.86
-35.87
-39.51
-38.49
-32.16
-20.76
-5.57
11.41
27.91
41.94
52.21
58.23
60.26
59.11
55.85
51.54
47.01
42.72
38.73
34.78
30.42
25.15
18.51
10.22
0.30
-10.79
-22.01
-31.85
-38.60
-40.87
-37.98
-30.21
-18.69
-5.08
8.88
21.62
31.95
39.03
42.45
42.31
39.23
34.30
28.75
23.61
19.40
15.99
12.74
8.73
3.16
-4.32
-13.40
-22.96
-31.24
-36.29
-36.46
-30.99
-20.28
-5.87
10.04
25.14
37.59
46.23
50.61
50.76
47.07
40.18
31.08
21.10
11.76
4.46
0.06
-1.40
-0.67
0.94
2.08
1.79
-0.26
-3.77
-7.92
-11.58
-13.55
-12.78
-8.69
-1.29
8.82
20.67
33.26
45.81
57.71
68.29
76.61
81.49
81.96
77.77
69.77
59.83
50.12
42.38
37.18
33.96
31.40
28.14
23.42
17.28
10.41
3.91
-1.04
-3.32
-1.87
4.16
15.11
30.56
49.02
68.10
85.07
97.57
104.24
104.98
100.73
92.94
83.05
72.17
61.08
50.32
40.40
31.69
24.34
18.14
12.47
6.53
-0.27
-7.95
-15.62
-21.53
-23.53
-19.84
-9.87
5.28
23.08
40.45
54.87
65.22
71.81
75.72
77.78
78.07
75.95
70.81
62.84
53.32
44.16
36.99
32.34
29.36
26.26
21.08
12.64
1.19
-11.56
-22.72
-29.07
-27.94
-18.29
-1.12
20.66
42.95
61.88
74.93
81.51
82.83
81.45
80.82
84.47
95.27
114.04
138.64
163.68
181.88
186.62
174.74
148.05
112.58
75.85
43.85
19.17
1.25
-11.79
-21.31
-27.44
-29.95
-29.63
-28.99
-31.51
-39.78
-54.07
-71.80
-88.65
-100.79
-106.82
-108.27
-108.80
-112.59
-122.52
-139.13
-160.11
-180.54
-193.54
-191.85
-170.17
-127.90
-70.81
-10.40
39.28
66.57
66.53
42.61
4.69
-35.22
-67.77
-88.84
-99.29
-102.51
-101.60
-97.88
-91.06
-80.60
-67.05
-52.44
-39.46
-30.26
-25.50
-24.16
-24.32
-24.38
-23.92
-23.82
-25.68
-30.82
-39.38
-49.85
-59.36
-64.66
-63.23
-54.33
-39.34
-21.28
-3.81
10.14
19.25
23.99
26.04
27.24
28.62
29.99
30.28
28.24
23.24
15.75
7.08
-1.19
-7.86
-12.51
-15.37
-16.99
-18.00
-19.10
-21.21
-25.42
-32.49
-42.23
-53.03
-62.21
-67.06
-66.15
-60.13
-51.38
-42.81
-36.44
-32.49
-29.75
-26.67
-22.56
-18.06
-14.68
-13.82
-15.86
-19.96
-24.43
-27.65
-28.77
-28.04
-26.47
-25.32
-25.48
-27.18
-29.95
-32.83
-34.74
-34.67
-31.99
-26.58
-18.82
-9.57
0.10
9.13
16.76
22.76
27.45
31.55
35.83
40.57
45.41
49.33
51.16
50.28
47.07
42.90
39.60
38.64
40.50
44.51
49.31
53.51
56.33
57.99
59.52
62.44
68.22
77.52
89.80
103.31
115.45
123.62
126.01
122.04
112.39
98.49
81.90
63.84
45.07
25.96
6.79
-12.11
-30.23
-46.99
-61.77
-74.17
-84.07
-91.68
-97.44
-101.72
-104.58
-105.64
-104.33
-100.21
-93.37
-84.43
-74.39
-64.17
-54.38
-45.23
-36.68
-28.84
-22.02
-16.81
-13.78
-13.18
-14.77
-17.79
-21.19
-23.97
-25.51
-25.80
-25.39
-25.17
-26.03
-28.58
-32.78
-37.96
-42.80
-45.67
-45.12
-40.29
-31.24
-18.94
-5.00
8.81
21.06
30.96
38.35
43.47
46.73
48.43
48.78
47.95
46.16
43.74
41.04
38.29
35.46
32.30
28.37
23.17
16.31
7.62
-2.63
-13.70
-24.35
-33.09
-38.44
-39.47
-36.09
-29.03
-19.66
-9.56
-0.06
8.00
14.26
18.68
21.34
22.31
21.65
19.51
16.13
11.93
7.36
2.85
-1.38
-5.36
-9.39
-13.84
-19.07
-25.19
-31.89
-38.46
-43.87
-47.18
-47.73
-45.49
-40.93
-34.89
-28.22
-21.49
-15.01
-8.99
-3.79
0.02
1.79
1.10
-1.94
-6.63
-12.01
-17.15
-21.49
-24.91
-27.65
-30.05
-32.42
-34.94
-37.69
-40.56
-43.22
-45.07
-45.28
-43.00
-37.69
-29.33
-18.46
-6.07
6.66
18.60
28.78
36.49
41.30
43.10
42.20
39.29
35.31
31.09
27.25
24.01
21.23
18.66
15.97
12.87
9.07
4.43
-0.82
-5.83
-9.30
-10.05
-7.71
-3.14
1.73
4.76
4.63
1.49
-3.33
-8.18
-12.07
-15.08
-17.97
-21.35
-25.06
-28.14
-29.50
-28.72
-26.41
-24.01
-23.02
-24.40
-28.25
-33.96
-40.63
-47.41
-53.53
-58.16
-60.38
-59.37
-54.77
-47.05
-37.42
-27.37
-18.01
-9.69
-1.98
5.71
13.47
20.61
25.85
28.01
26.58
22.00
15.36
7.89
0.42
-6.76
-13.75
-20.72
-27.69
-34.40
-40.30
-44.59
-46.36
-44.77
-39.39
-30.42
-18.78
-5.86
6.83
18.07
27.16
33.82
37.97
39.48
38.27
34.51
28.77
22.09
15.73
10.72
7.50
5.78
4.80
3.61
1.52
-1.76
-6.03
-10.68
-14.79
-17.30
-17.30
-14.21
-8.07
0.45
10.23
20.12
29.25
37.24
44.09
49.92
54.77
58.52
60.97
62.08
62.16
62.00
62.62
64.88
68.94
73.82
77.55
77.74
72.47
61.06
44.40
24.52
3.80
-15.88
-33.52
-48.97
-62.50
-74.26
-84.18
-92.06
-97.97
-102.56
-107.03
-112.70
-120.36
-129.79
-139.55
-147.50
-151.38
-149.66
-141.75
-127.95
-108.90
-84.99
-56.12
-21.89
17.83
62.39
109.92
157.40
200.98
236.70
261.30
273.06
272.32
261.47
244.29
224.69
205.44
187.50
170.16
152.11
132.75
113.19
96.17
85.18
82.96
90.33
105.59
124.86
143.03
155.12
157.45
148.48
129.06
102.15
71.84
42.39
17.20
-1.70
-13.63
-19.03
-19.06
-15.39
-9.95
-4.80
-1.74
-2.01
-5.99
-13.16
-22.33
-32.07
-41.11
-48.68
-54.60
-59.15
-62.90
-66.40
-70.02
-73.77
-77.32
-80.00
-81.10
-80.08
-76.74
-71.33
-64.41
-56.76
-49.02
-41.69
-34.94
-28.72
-22.79
-16.94
-11.05
-5.24
0.12
4.57
7.67
9.20
9.32
8.45
7.16
5.88
4.79
3.75
2.48
0.74
-1.51
-3.93
-5.98
-7.09
-6.85
-5.17
-2.28
1.32
5.05
8.41
11.02
12.63
13.12
12.48
10.81
8.36
5.51
2.71
0.33
-1.47
-2.76
-3.87
-5.21
-7.13
-9.69
-12.60
-15.15
-16.37
-15.25
-11.13
-3.91
5.77
16.71
27.42
36.48
42.81
45.80
45.31
41.68
35.71
28.62
21.94
17.19
15.49
17.26
22.10
28.98
36.69
44.20
50.97
56.91
62.26
67.24
71.99
76.62
81.37
86.68
93.25
101.64
111.90
123.22
133.85
141.56
144.46
141.78
134.23
123.51
111.32
98.36
83.98
66.65
44.95
18.55
-11.39
-42.47
-71.79
-96.67
-115.18
-126.44
-130.73
-129.45
-124.87
-119.64
-115.91
-114.87
-116.57
-120.41
-125.58
-131.44
-137.38
-142.55
-145.92
-146.59
-144.17
-138.91
-131.41
-122.12
-111.12
-98.45
-84.67
-71.25
-60.24
-53.45
-51.54
-53.65
-57.89
-62.23
-65.37
-66.91
-66.97
-65.56
-62.31
-56.62
-48.32
-38.12
-27.63
-18.93
-13.82
-13.18
-16.57
-22.45
-28.69
-33.45
-35.86
-36.40
-36.56
-38.17
-42.33
-48.96
-56.82
-64.21
-69.90
-73.73
-76.45
-79.04
-81.83
-84.04
-84.15
-80.66
-73.00
-62.00
-49.47
-37.42
-27.21
-19.18
-12.89
-7.74
-3.46
-0.38
0.90
0.05
-2.70
-6.47
-10.12
-12.73
-13.99
-14.25
-14.35
-15.32
-18.02
-22.83
-29.47
-36.92
-43.52
-47.39
-47.05
-41.99
-32.92
-21.53
-9.88
0.35
8.24
13.67
16.93
18.35
18.04
16.00
12.36
7.48
2.00
-3.37
-8.01
-11.60
-13.98
-15.13
-15.11
-14.07
-12.39
-10.61
-9.27
-8.57
-8.16
-7.19
-4.73
-0.25
6.00
13.00
19.42
24.15
26.77
27.49
26.91
25.55
23.68
21.20
17.96
13.88
9.11
4.06
-0.68
-4.44
-6.79
-7.71
-7.89
-8.68
-11.70
-18.20
-28.34
-40.80
-52.98
-61.72
-64.42
-59.93
-49.10
-34.53
-19.73
-7.98
-1.33
-0.18
-3.50
-9.52
-16.34
-22.47
-26.89
-28.85
-27.77
-23.33
-15.48
-4.52
9.17
25.23
43.28
62.60
81.58
97.57
107.49
108.95
101.55
87.40
70.49
55.25
45.31
42.53
47.23
58.44
74.22
91.57
106.52
115.08
114.95
107.04
95.25
84.85
79.47
79.50
82.65
85.93
87.38
86.97
86.45
87.08
89.37
92.02
93.48
93.87
95.77
102.34
115.93
137.66
166.12
199.63
235.67
271.80
306.65
339.62
368.87
391.60
405.95
409.81
403.35
386.64
359.23
320.87
271.82
211.45
139.84
59.67
-30.25
-117.77
-186.21
-226.66
-241.74
-239.10
-226.44
-217.39
-209.55
-199.87
-186.40
-171.62
-161.60
-163.51
-173.72
-191.17
-213.81
-237.50
-259.98
-279.86
-298.54
-319.52
-346.24
-380.79
-425.25
-479.51
-539.65
-599.86
-651.14
-683.83
-690.27
-667.09
-616.77
-548.66
-475.10
-407.01
-352.17
-313.01
-287.79
-272.48
-262.29
-252.70
-240.65
-223.79
-200.44
-170.68
-136.11
-99.64
-64.82
-34.69
-10.83
6.48
18.53
27.62
35.98
45.28
56.14
68.10
79.91
90.20
97.90
102.83
105.71
107.80
110.34
114.04
118.80
123.79
127.83
129.86
129.45
126.93
123.34
119.98
117.98
117.87
119.39
121.78
124.09
125.76
126.93
128.46
131.62
137.54
146.64
158.44
171.79
185.28
197.94
209.58
220.84
232.91
247.20
265.09
287.59
314.83
345.39
375.80
400.86
414.91
413.86
396.99
367.42
330.95
293.75
260.10
231.30
206.33
183.52
162.15
142.88
127.13
115.73
108.13
102.50
96.65
89.13
79.83
69.90
60.89
53.82
48.56
43.85
37.84
28.97
16.66
1.51
-14.99
-31.18
-45.82
-58.30
-68.42
-75.97
-80.51
-81.60
-79.36
-74.79
-69.48
-64.78
-60.79
-56.13
-48.56
-36.50
-20.21
-2.10
14.32
26.15
32.37
34.00
32.94
30.49
26.46
19.44
8.11
-7.44
-25.22
-41.98
-54.55
-61.31
-62.53
-60.00
-55.80
-51.22
-46.36
-40.47
-32.72
-23.00
-12.15
-1.68
6.93
12.93
16.49
18.44
19.60
20.11
19.23
15.75
8.72
-1.82
-14.58
-27.50
-38.56
-46.63
-51.84
-55.29
-58.30
-61.60
-65.06
-67.83
-68.99
-68.20
-66.00
-63.56
-62.14
-62.26
-63.31
-63.67
-61.34
-54.77
-43.59
-28.79
-12.28
3.80
17.89
29.25
37.88
44.25
48.94
52.54
55.48
57.88
59.25
58.27
52.97
41.34
22.32
-3.38
-33.17
-63.34
-90.36
-112.08
-128.21
-139.98
-149.25
-157.57
-165.76
-173.77
-180.78
-185.29
-185.24
-178.41
-163.15
-139.40
-109.34
-77.29
-48.74
-28.89
-21.16
-26.16
-41.52
-62.41
-82.63
-96.21
-98.81
-88.90
-68.03
-40.03
-9.57
19.57
45.58
68.74
90.75
113.84
140.04
170.86
206.90
247.37
289.71
329.71
362.43
383.82
392.21
388.80
376.82
359.73
339.55
316.21
288.30
254.61
215.45
172.82
129.48
87.54
47.56
8.76
-29.88
-68.36
-105.18
-137.62
-163.07
-180.15
-189.30
-192.46
-192.09
-190.22
-187.94
-185.40
-182.18
-177.73
-171.65
-163.88
-154.65
-144.36
-133.18
-120.68
-105.57
-85.97
-60.22
-27.89
9.54
48.67
85.01
114.44
134.46
145.01
148.66
150.31
156.12
171.67
199.60
237.80
279.24
314.00
333.01
331.61
311.17
277.73
238.67
199.29
161.05
122.44
81.14
36.05
-12.17
-61.66
-110.14
-155.13
-193.77
-223.06
-240.83
-247.04
-243.93
-234.99
-222.87
-207.82
-187.76
-160.33
-125.33
-85.98
-47.93
-16.65
5.19
18.64
27.40
35.56
45.73
58.59
73.68
90.54
109.07
129.11
149.41
167.02
177.68
177.11
162.55
134.05
94.69
49.90
5.95
-31.61
-59.12
-75.32
-81.04
-78.63
-71.29
-62.38
-54.99
-51.31
-52.21
-56.98
-63.55
-69.16
-71.44
-69.28
-63.21
-54.99
-46.74
-40.16
-36.00
-34.17
-34.08
-35.05
-36.53
-38.13
-39.67
-41.03
-42.24
-43.29
-44.17
-44.77
-44.93
-44.48
-43.32
-41.40
-38.82
-35.83
-32.82
-30.28
-28.68
-28.29
-29.03
-30.55
-32.35
-33.98
-35.15
-35.66
-35.27
-33.61
-30.38
-25.56
-19.68
-13.78
-9.08
-6.54
-6.51
-8.59
-12.00
-15.83
-19.46
-22.48
-24.63
-25.57
-24.92
-22.42
-18.17
-12.72
-6.90
-1.53
2.88
6.19
8.44
9.58
9.40
7.71
4.60
0.70
-2.87
-5.00
-5.06
-3.40
-1.21
-0.12
-1.53
-5.98
-13.11
-21.70
-30.28
-37.55
-42.63
-45.24
-45.45
-43.53
-39.82
-34.71
-28.63
-22.13
-15.91
-10.64
-6.90
-5.00
-4.92
-6.31
-8.63
-11.18
-13.27
-14.18
-13.32
-10.43
-5.71
0.10
5.90
10.59
13.54
14.73
14.68
13.92
12.72
10.98
8.58
5.69
2.74
0.06
-2.53
-5.89
-11.00
-18.17
-26.46
-33.89
-38.29
-38.59
-35.36
-30.66
-26.94
-25.83
-27.47
-30.68
-33.76
-35.35
-34.90
-32.67
-29.33
-25.49
-21.46
-17.23
-12.69
-7.79
-2.65
2.46
7.24
11.49
15.17
18.43
21.51
24.56
27.51
29.95
31.15
30.38
27.35
22.60
17.61
14.48
15.15
20.56
30.10
41.73
52.71
60.68
64.44
64.07
60.31
53.63
43.80
30.22
12.76
-7.21
-26.79
-42.50
-51.73
-53.69
-49.15
-39.27
-24.57
-5.18
17.77
40.69
57.63
62.48
52.33
29.91
3.19
-17.80
-25.61
-18.53
-0.89
19.71
36.26
45.08
46.27
42.09
34.86
25.59
14.22
0.58
-14.53
-29.02
-40.30
-46.41
-47.02
-43.67
-39.04
-35.78
-35.37
-37.52
-40.48
-42.02
-40.42
-35.29
-27.60
-19.16
-11.78
-6.65
-3.97
-3.13
-3.18
-3.30
-3.11
-2.71
-2.48
-2.81
-3.95
-5.89
-8.39
-11.13
-13.85
-16.44
-18.93
-21.37
-23.67
-25.45
-26.04
-24.62
-20.70
-14.30
-6.17
2.46
10.25
16.22
20.03
21.92
22.40
21.89
20.54
18.22
14.83
10.50
5.67
0.96
-3.12
-6.33
-8.73
-10.47
-11.60
-11.95
-11.26
-9.31
-6.21
-2.38
1.55
4.99
7.63
9.39
10.44
10.87
10.71
9.86
8.21
5.78
2.74
-0.67
-4.21
-7.69
-11.01
-14.16
-17.08
-19.76
-22.22
-24.55
-26.89
-29.27
-31.56
-33.34
-33.98
-32.90
-29.69
-24.36
-17.33
-9.25
-0.81
7.60
15.81
23.78
31.33
37.93
42.77
45.00
44.15
40.31
34.15
26.68
18.93
11.69
5.56
1.00
-1.65
-2.42
-1.85
-0.90
-0.55
-1.28
-2.75
-3.94
-3.81
-1.91
1.32
4.81
7.48
8.71
8.51
7.19
5.03
2.14
-1.42
-5.27
-8.71
-10.93
-11.56
-10.89
-9.89
-9.63
-10.80
-13.30
-16.34
-18.95
-20.48
-20.81
-20.18
-18.80
-16.47
-12.63
-6.80
0.91
9.51
17.30
22.57
24.25
22.30
17.59
11.48
5.18
-0.52
-5.31
-9.13
-12.02
-13.98
-15.06
-15.33
-15.06
-14.51
-13.86
-13.19
-12.25
-10.63
-7.83
-3.48
2.45
9.63
17.39
24.98
31.76
37.32
41.49
44.19
45.29
44.61
42.01
37.50
31.42
24.39
17.21
10.64
5.21
1.03
-2.21
-5.03
-7.95
-11.16
-14.35
-16.81
-17.70
-16.45
-13.03
-8.13
-2.82
1.77
4.87
6.30
6.38
5.61
4.36
2.66
0.22
-3.32
-8.11
-13.88
-20.00
-25.62
-29.97
-32.59
-33.36
-32.40
-30.07
-26.96
-23.77
-21.21
-19.60
-18.65
-17.27
-13.85
-6.79
4.80
20.48
38.31
55.27
68.11
74.39
73.23
65.48
53.30
39.26
25.52
13.29
2.89
-5.90
-13.39
-19.70
-24.89
-29.17
-33.02
-37.04
-41.51
-46.00
-49.20
-49.24
-44.44
-34.15
-19.13
-1.50
15.99
30.83
41.40
47.19
48.46
45.84
40.00
31.66
21.72
11.39
2.07
-5.00
-9.26
-11.08
-11.70
-12.83
-15.92
-21.50
-28.78
-35.91
-40.65
-41.30
-37.35
-29.59
-19.72
-9.63
-0.79
5.98
10.44
12.67
12.92
11.51
8.82
5.28
1.31
-2.72
-6.46
-9.64
-12.03
-13.52
-14.10
-13.94
-13.28
-12.47
-11.91
-11.99
-12.99
-14.92
-17.41
-19.81
-21.31
-21.21
-18.97
-14.30
-7.14
2.20
12.94
23.74
33.04
39.55
42.84
43.51
42.88
42.19
41.94
41.56
39.86
35.73
28.90
20.15
10.96
2.86
-3.18
-6.86
-8.43
-8.21
-6.37
-2.91
2.06
8.04
14.06
18.94
21.64
21.75
19.60
16.05
12.08
8.46
5.54
3.26
1.41
-0.29
-2.05
-4.06
-6.59
-9.98
-14.56
-20.47
-27.34
-34.26
-39.91
-42.97
-42.62
-38.87
-32.52
-24.86
-17.11
-10.18
-4.49
-0.14
2.92
4.78
5.59
5.66
5.33
4.88
4.29
3.27
1.45
-1.33
-4.81
-8.37
-11.36
-13.50
-14.98
-16.34
-17.96
-19.78
-21.10
-20.92
-18.41
-13.42
-6.64
0.67
7.15
11.77
14.11
14.24
12.50
9.28
4.94
-0.09
-5.35
-10.26
-14.29
-17.11
-18.74
-19.57
-20.20
-21.32
-23.39
-26.53
-30.45
-34.53
-37.91
-39.77
-39.46
-36.70
-31.68
-24.99
-17.52
-10.18
-3.65
1.78
6.18
9.76
12.61
14.50
14.98
13.62
10.25
5.09
-1.42
-8.80
-16.78
-25.19
-33.95
-42.79
-51.11
-57.95
-62.03
-61.96
-56.55
-45.16
-28.01
-6.42
17.26
39.96
58.12
68.26
67.48
54.51
30.75
0.87
-27.62
-46.03
-47.01
-26.91
13.01
67.06
127.04
184.52
232.81
267.79
287.98
294.01
288.07
273.46
253.85
232.44
211.14
190.00
167.58
141.91
111.69
77.40
41.29
6.68
-23.39
-47.35
-65.55
-79.72
-92.05
-104.12
-116.39
-128.42
-139.41
-148.84
-156.76
-163.61
-169.67
-174.76
-177.95
-177.92
-173.49
-164.15
-150.13
-132.21
-111.04
-86.80
-59.22
-28.03
6.27
42.14
76.91
107.33
130.16
142.71
143.40
132.09
110.46
81.84
50.68
21.41
-2.64
-19.94
-30.72
-36.23
-37.91
-36.76
-33.27
-27.73
-20.45
-11.87
-2.46
7.36
17.18
26.39
34.17
39.55
41.72
40.34
35.62
28.22
19.11
9.32
-0.13
-8.30
-14.41
-17.87
-18.48
-16.55
-12.91
-8.80
-5.61
-4.55
-6.26
-10.76
-17.40
-25.19
-33.09
-40.20
-45.79
-49.33
-50.45
-49.01
-45.23
-39.67
-33.13
-26.38
-19.97
-14.21
-9.19
-4.98
-1.77
0.20
0.72
-0.21
-2.42
-5.57
-9.32
-13.39
-17.54
-21.61
-25.45
-28.95
-32.02
-34.55
-36.23
-36.63
-35.23
-31.73
-26.38
-20.17
-14.65
-11.49
-11.84
-15.80
-22.37
-29.92
-36.93
-42.79
-48.19
-54.77
-64.42
-78.24
-96.01
-116.08
-135.84
-152.32
-162.74
-164.98
-158.09
-142.79
-121.87
-99.98
-82.58
-74.13
-76.35
-87.29
-101.87
-113.58
-116.94
-109.12
-90.45
-63.54
-31.67
3.08
40.68
82.85
131.23
184.88
238.40
282.10
305.07
299.90
266.85
214.86
158.48
112.34
86.06
82.18
97.60
127.10
165.85
209.85
254.24
291.92
314.45
315.62
295.66
263.04
231.88
216.08
222.78
249.12
283.99
313.66
328.00
324.44
307.39
284.40
261.42
240.04
217.83
191.12
158.04
119.96
80.64
43.98
11.99
-15.98
-42.42
-69.98
-100.03
-132.30
-165.86
-200.00
-234.26
-267.06
-294.33
-309.81
-307.37
-285.19
-248.31
-207.58
-174.79
-156.66
-151.53
-150.88
-144.59
-126.28
-95.61
-56.36
-12.83
32.65
79.03
123.96
161.99
185.61
188.97
171.36
138.39
99.57
64.09
37.25
19.37
7.22
-3.40
-15.60
-30.55
-47.70
-65.51
-82.46
-97.37
-109.70
-119.48
-126.96
-132.29
-135.42
-136.16
-134.61
-131.60
-128.59
-127.21
-128.44
-132.10
-136.88
-141.03
-143.28
-143.34
-141.88
-139.81
-137.55
-134.74
-130.57
-124.52
-117.08
-109.86
-105.06
-104.47
-108.47
-115.66
-123.16
-127.49
-125.72
-116.50
-100.48
-80.14
-59.00
-40.50
-26.97
-19.01
-15.56
-14.52
-13.81
-12.25
-10.04
-8.62
-10.04
-16.10
-27.53
-43.52
-61.60
-78.03
-88.62
-90.04
-81.21
-64.11
-43.53
-25.57
-15.63
-16.47
-27.18
-43.63
-59.87
-70.07
-70.06
-58.10
-34.47
-0.73
41.16
89.04
140.56
193.17
244.26
291.46
332.91
367.06
392.35
406.94
408.90
396.78
370.49
331.70
283.54
229.61
172.94
115.59
59.26
6.12
-40.75
-77.96
-103.28
-117.19
-123.17
-126.88
-134.00
-147.90
-168.16
-190.78
-209.66
-218.96
-215.14
-198.00
-170.39
-136.93
-102.28
-69.73
-40.29
-12.66
15.79
47.27
81.75
115.95
143.85
158.71
155.90
134.72
98.70
54.24
8.71
-30.99
-59.28
-72.66
-70.48
-55.80
-35.39
-18.09
-11.88
-20.79
-43.36
-73.62
-103.84
-127.60
-141.47
-144.89
-139.01
-125.56
-106.56
-84.61
-63.09
-45.57
-34.74
-31.41
-34.30
-40.52
-46.86
-51.02
-52.46
-52.40
-53.12
-56.79
-64.30
-74.89
-86.53
-97.05
-105.24
-111.39
-116.95
-123.44
-131.54
-140.67
-149.18
-155.25
-157.31
-154.02
-144.05
-126.20
-100.44
-68.98
-36.63
-9.48
7.48
12.74
9.01
1.75
-3.58
-4.03
0.02
6.10
11.74
15.98
19.43
23.06
26.88
29.63
29.63
26.19
20.55
15.74
15.39
22.47
37.97
60.49
86.82
112.88
134.85
149.98
156.86
155.44
146.76
132.66
115.41
97.33
80.25
65.27
52.59
41.92
32.87
25.38
19.75
16.41
15.61
17.25
21.07
26.81
34.47
44.08
55.29
67.05
77.69
85.48
89.61
90.87
91.59
94.64
101.84
112.82
124.72
133.58
135.99
130.74
119.13
104.12
88.72
74.73
62.70
52.56
44.45
38.64
34.91
32.02
28.36
23.35
18.60
17.45
22.65
33.29
43.31
42.95
23.17
-19.26
-78.88
-142.93
-196.16
-226.92
-231.14
-212.48
-178.98
-138.57
-96.01
-51.88
-4.28
48.84
107.62
169.60
230.44
285.24
329.91
361.92
380.47
386.02
379.78
363.00
336.88
302.79
262.85
220.19
178.78
142.52
113.82
92.58
75.79
58.30
34.43
-0.04
-46.13
-100.62
-156.41
-204.34
-235.88
-245.89
-234.28
-205.81
-168.25
-129.89
-97.42
-74.56
-61.58
-55.38
-50.52
-41.14
-23.42
2.31
30.89
54.01
63.42
54.52
28.17
-10.03
-52.42
-92.14
-124.86
-148.69
-163.10
-168.03
-163.89
-152.26
-136.28
-120.19
-107.97
-101.84
-101.27
-103.00
-102.36
-95.22
-79.79
-57.47
-32.33
-9.50
6.70
14.15
13.17
5.75
-5.65
-19.05
-33.36
-48.03
-62.57
-76.13
-87.49
-95.34
-98.69
-97.14
-90.96
-81.05
-68.76
-55.68
-43.31
-32.85
-24.89
-19.46
-16.19
-14.68
-14.65
-16.10
-19.11
-23.55
-28.96
-34.62
-39.85
-44.35
-48.37
-52.45
-57.05
-62.02
-66.44
-68.76
-67.32
-60.98
-49.57
-34.11
-16.51
0.94
16.21
28.14
36.61
42.48
47.15
52.03
58.12
65.80
74.85
84.55
93.82
101.36
105.73
105.71
100.56
90.35
76.03
59.29
42.15
26.51
13.91
5.22
0.52
-0.95
-0.79
-1.21
-4.49
-12.26
-24.81
-40.60
-56.39
-67.95
-71.41
-64.93
-49.86
-31.09
-15.91
-11.63
-22.64
-48.29
-82.50
-115.46
-136.99
-140.08
-123.17
-90.36
-49.51
-9.31
23.62
46.27
59.28
65.61
68.77
71.42
74.70
78.49
82.09
84.84
86.37
86.51
84.97
81.19
74.50
64.53
51.52
36.52
21.14
6.96
-4.99
-14.64
-22.79
-30.57
-38.73
-47.23
-55.17
-61.35
-65.00
-66.31
-66.36
-66.41
-66.96
-66.89
-63.42
-52.82
-31.81
0.92
43.55
90.88
135.11
167.74
182.02
175.12
149.11
110.15
66.23
24.39
-11.27
-39.92
-62.94
-82.11
-98.27
-111.13
-119.98
-124.61
-125.70
-124.58
-122.66
-121.16
-121.31
-124.47
-132.11
-145.16
-163.21
-184.14
-204.37
-219.76
-226.71
-222.97
-207.92
-182.51
-148.84
-109.53
-67.10
-23.22
21.56
67.66
115.54
164.66
212.88
256.74
292.73
318.61
334.26
341.54
343.55
343.59
344.37
347.40
352.63
358.10
360.12
354.14
336.35
305.56
264.32
218.64
175.95
142.21
119.47
105.12
93.18
77.04
52.24
17.98
-23.08
-66.33
-107.11
-141.83
-168.17
-184.82
-191.21
-187.93
-177.34
-163.67
-152.07
-146.84
-149.58
-158.42
-168.90
-175.93
-175.92
-167.86
-152.82
-132.62
-108.58
-81.32
-51.54
-21.05
6.86
28.16
39.58
40.06
31.13
16.09
-1.47
-19.12
-35.96
-52.13
-67.78
-82.41
-94.69
-102.93
-105.82
-102.75
-94.01
-80.59
-63.91
-45.64
-27.53
-11.26
1.81
11.06
16.89
20.67
24.16
28.68
34.38
40.09
43.81
43.74
39.19
30.94
20.72
10.33
0.83
-7.74
-15.92
-24.11
-32.00
-38.62
-42.91
-44.44
-43.86
-42.75
-42.88
-45.40
-50.22
-55.81
-59.81
-59.87
-54.65
-44.35
-30.83
-16.88
-5.37
1.69
3.73
1.64
-2.72
-6.94
-8.42
-4.72
5.86
23.31
45.19
66.74
82.28
87.36
80.74
64.84
44.58
25.03
9.33
-2.01
-10.19
-16.61
-21.60
-24.41
-24.22
-21.18
-16.78
-13.23
-12.31
-14.41
-18.49
-22.40
-24.02
-22.16
-17.26
-11.25
-6.71
-5.92
-9.87
-17.90
-27.92
-36.99
-42.23
-41.50
-33.88
-19.96
-1.74
17.90
35.94
50.02
59.00
63.00
62.99
60.13
55.30
48.96
41.40
33.08
24.74
17.22
11.10
6.50
3.05
0.16
-2.67
-5.65
-8.63
-11.38
-13.73
-15.81
-17.94
-20.45
-23.48
-26.82
-29.95
-32.19
-32.99
-31.99
-29.20
-24.95
-19.71
-14.06
-8.51
-3.45
0.86
4.21
6.44
7.38
6.97
5.26
2.49
-0.92
-4.53
-8.03
-11.31
-14.48
-17.76
-21.30
-24.94
-28.10
-29.77
-28.76
-24.09
-15.38
-3.10
11.43
26.33
39.69
49.92
56.10
57.95
55.71
50.03
41.82
32.18
22.27
13.18
5.71
0.22
-3.33
-5.33
-6.36
-7.03
-7.92
-9.47
-11.91
-15.16
-18.78
-22.00
-23.95
-23.93
-21.69
-17.54
-12.25
-6.77
-2.00
1.44
3.24
3.29
1.66
-1.42
-5.51
-9.93
-13.87
-16.64
-17.83
-17.42
-15.70
-12.99
-9.42
-4.84
1.09
8.66
17.96
28.66
40.00
50.77
59.56
64.93
65.93
62.40
55.24
46.22
37.47
30.87
27.46
27.18
29.10
31.85
34.14
35.06
34.30
31.99
28.54
24.44
20.20
16.14
12.48
9.21
6.12
2.89
-0.73
-4.70
-8.52
-11.31
-12.04
-10.00
-5.15
1.81
9.64
17.02
23.02
27.35
30.30
32.35
33.86
34.80
34.75
33.16
29.62
24.11
17.09
9.44
2.24
-3.53
-7.27
-8.94
-9.05
-8.48
-8.04
-8.12
-8.46
-8.25
-6.58
-2.97
2.17
7.61
11.78
13.38
11.93
7.92
2.35
-3.82
-10.07
-16.47
-23.32
-30.96
-39.49
-48.95
-59.27
-70.10
-80.25
-87.42
-88.32
-79.77
-60.22
-30.98
3.69
37.71
65.23
82.43
88.45
84.89
74.68
60.68
44.95
28.67
12.46
-3.26
-18.11
-31.79
-44.11
-54.74
-62.98
-67.71
-67.66
-62.12
-51.66
-38.46
-25.93
-17.90
-17.40
-25.79
-42.32
-64.03
-86.16
-103.20
-110.10
-103.61
-83.61
-53.27
-18.17
15.85
44.94
68.10
86.17
99.40
105.79
101.24
82.14
48.45
5.39
-37.82
-71.59
-90.15
-93.87
-88.44
-81.39
-78.00
-79.04
-81.56
-81.97
-79.32
-76.26
-77.47
-86.46
-102.91
-122.12
-137.38
-143.29
-138.28
-125.03
-108.17
-91.57
-76.36
-61.03
-42.99
-20.10
8.86
44.77
88.51
140.28
197.90
255.40
303.53
332.16
333.88
306.86
255.65
189.51
119.43
55.01
2.42
-36.05
-61.15
-75.23
-80.81
-79.70
-72.74
-60.19
-42.63
-21.79
-0.70
17.10
29.34
36.15
40.37
46.31
57.79
76.46
100.85
127.09
149.94
164.51
167.92
160.59
146.87
134.31
131.53
145.13
176.86
222.40
272.49
316.25
345.05
355.24
348.38
329.25
302.92
272.36
237.94
198.41
152.90
102.31
49.84
0.12
-42.42
-75.37
-99.23
-117.08
-133.29
-151.80
-175.16
-203.66
-235.47
-266.85
-292.87
-308.44
-309.28
-292.96
-259.55
-211.87
-154.93
-94.80
-37.09
14.56
58.83
96.14
127.21
151.44
166.29
167.96
153.73
124.42
85.87
47.62
19.25
6.15
7.21
15.65
22.73
22.19
12.77
-2.12
-17.17
-28.56
-35.90
-41.85
-49.87
-61.93
-77.29
-93.09
-106.19
-114.97
-119.98
-123.39
-127.69
-134.18
-142.44
-150.73
-157.11
-160.52
-161.21
-160.29
-158.66
-156.28
-151.96
-144.17
-131.96
-115.71
-96.97
-77.72
-59.50
-42.92
-27.87
-14.10
-1.70
8.76
16.63
21.72
24.51
25.96
26.88
27.51
27.31
25.27
20.53
12.89
3.07
-7.49
-17.06
-24.12
-27.74
-27.60
-23.88
-17.00
-7.55
3.79
16.19
28.69
40.31
50.16
57.55
62.06
63.49
61.93
57.73
51.63
44.63
37.83
32.07
27.63
24.17
20.81
16.52
10.48
2.40
-7.29
-17.54
-26.94
-34.05
-37.89
-38.29
-35.92
-32.15
-28.53
-26.30
-25.98
-27.34
-29.64
-31.95
-33.51
-33.89
-33.07
-31.39
-29.45
-27.94
-27.50
-28.48
-30.96
-34.77
-39.54
-44.81
-50.01
-54.33
-56.78
-56.35
-52.38
-44.94
-35.12
-24.81
-16.34
-11.79
-12.48
-18.60
-29.19
-42.36
-55.66
-66.73
-73.63
-75.20
-70.92
-60.72
-44.65
-23.07
3.05
31.87
61.11
89.00
115.10
140.35
165.94
191.65
214.88
231.20
236.49
229.36
212.42
190.94
169.93
151.24
133.03
112.06
87.25
61.84
42.23
34.10
38.03
47.98
53.64
45.57
20.08
-18.92
-62.11
-99.53
-124.98
-137.73
-141.15
-139.72
-136.40
-131.88
-125.42
-116.45
-105.57
-94.47
-85.10
-78.57
-74.61
-71.75
-68.12
-62.36
-54.07
-43.86
-32.85
-22.10
-12.28
-3.65
3.72
9.67
13.81
15.66
14.88
11.54
6.38
0.74
-3.67
-5.19
-2.88
3.17
11.62
20.42
27.42
31.15
31.12
27.86
22.46
16.25
10.48
6.16
3.97
4.05
5.93
8.39
9.85
8.91
4.98
-1.33
-8.32
-13.94
-16.64
-16.08
-13.31
-10.15
-8.69
-10.49
-16.31
-25.89
-37.74
-48.71
-54.05
-48.39
-27.88
7.39
52.05
96.58
130.56
146.75
143.62
125.15
98.16
68.88
40.71
14.42
-10.25
-32.69
-51.09
-63.53
-69.76
-72.07
-74.33
-79.60
-87.67
-94.35
-93.36
-79.74
-53.42
-20.56
8.44
23.20
18.31
-4.20
-35.77
-65.12
-82.96
-85.04
-72.79
-51.81
-29.42
-12.49
-5.94
-11.73
-28.36
-51.20
-73.71
-89.55
-94.78
-89.09
-75.62
-59.52
-46.01
-38.64
-38.37
-43.50
-50.03
-52.43
-45.25
-25.16
7.20
46.92
86.76
120.53
146.38
167.61
190.58
220.33
256.74
293.28
319.58
326.31
309.86
274.18
228.79
184.30
147.80
120.51
98.92
78.09
55.10
30.55
7.66
-10.35
-22.67
-31.31
-39.44
-49.00
-59.22
-67.29
-70.70
-69.66
-67.80
-70.63
-82.44
-103.71
-130.34
-155.24
-171.20
-173.73
-162.56
-141.39
-116.32
-93.69
-78.19
-71.42
-71.48
-73.58
-71.62
-60.38
-37.55
-4.58
33.93
72.13
105.04
129.54
144.07
147.40
137.86
113.89
75.67
26.64
-26.48
-75.60
-114.28
-140.10
-155.03
-163.83
-171.42
-180.92
-193.06
-206.72
-219.94
-230.56
-236.52
-236.21
-228.95
-215.33
-197.07
-176.19
-153.70
-128.82
-99.28
-62.70
-18.06
33.07
86.88
138.67
184.49
221.92
249.77
266.95
272.40
266.00
250.13
230.15
212.86
203.24
201.84
204.83
206.87
205.05
200.60
197.42
198.29
201.45
200.30
186.73
155.86
109.86
58.05
13.51
-12.17
-13.52
6.60
37.89
66.89
82.62
81.43
68.19
53.05
44.89
45.31
47.60
40.90
17.71
-20.55
-63.20
-95.73
-107.32
-96.09
-69.30
-39.29
-17.84
-11.94
-22.34
-43.90
-67.66
-83.26
-82.32
-62.11
-27.24
11.48
41.45
53.72
47.05
28.12
8.07
-2.79
0.57
16.47
37.95
56.14
63.48
55.52
31.97
-3.75
-45.74
-87.36
-122.89
-148.58
-162.85
-165.52
-157.33
-139.87
-116.02
-90.22
-67.85
-53.62
-50.05
-56.22
-68.12
-80.32
-88.09
-89.28
-84.84
-77.86
-72.02
-69.91
-71.95
-76.43
-80.43
-81.28
-77.65
-70.07
-60.44
-51.07
-43.57
-38.14
-33.82
-29.08
-22.70
-14.26
-4.26
6.25
16.06
24.21
30.17
33.84
35.53
35.93
35.90
36.21
37.18
38.47
39.16
38.28
35.47
31.36
27.47
25.49
26.43
29.99
34.73
38.70
40.52
40.08
38.60
38.02
40.02
45.17
52.64
60.42
66.08
67.69
64.34
56.14
43.99
29.06
12.76
-3.00
-15.39
-21.18
-18.02
-5.86
12.42
32.39
50.83
68.39
89.98
121.98
167.55
222.91
277.57
318.61
337.01
331.91
310.49
283.38
258.72
238.56
219.27
195.45
164.23
127.11
88.60
52.90
21.09
-9.34
-42.26
-79.87
-120.75
-160.02
-191.39
-210.11
-214.95
-208.45
-195.62
-181.63
-169.99
-161.75
-156.13
-151.68
-147.59
-144.18
-142.57
-143.86
-148.44
-155.70
-164.24
-172.29
-178.16
-180.49
-178.34
-171.54
-160.66
-147.10
-132.64
-118.88
-106.65
-95.89
-85.92
-76.10
-66.33
-57.17
-49.44
-43.58
-39.37
-36.00
-32.58
-28.61
-24.25
-20.04
-16.53
-13.93
-11.99
-10.29
-8.58
-7.00
-5.98
-6.03
-7.33
-9.67
-12.45
-15.14
-17.53
-19.91
-22.99
-27.40
-33.37
-40.50
-47.84
-54.25
-58.80
-60.97
-60.68
-58.15
-53.64
-47.40
-39.39
-29.59
-18.05
-5.37
7.10
17.53
24.46
27.80
29.24
31.85
38.84
52.36
73.27
101.63
137.62
181.47
232.38
286.83
337.86
376.48
394.99
390.42
366.18
330.63
293.32
260.93
235.08
212.97
189.84
161.75
127.00
85.95
40.18
-8.37
-57.07
-102.20
-138.96
-162.60
-170.34
-163.12
-145.83
-125.77
-109.98
-102.75
-104.50
-112.50
-122.67
-131.47
-136.90
-138.40
-136.09
-130.18
-120.87
-108.77
-95.19
-82.20
-71.95
-65.82
-63.76
-64.18
-64.59
-62.55
-56.70
-47.22
-35.75
-24.58
-15.82
-10.67
-9.22
-10.73
-14.11
-18.44
-23.14
-27.94
-32.61
-36.78
-39.92
-41.46
-40.99
-38.54
-34.57
-29.90
-25.49
-22.08
-19.97
-18.94
-18.33
-17.38
-15.55
-12.64
-8.96
-5.07
-1.61
0.84
1.93
1.56
-0.08
-2.55
-5.16
-7.18
-8.06
-7.58
-5.96
-3.71
-1.39
0.60
2.14
3.33
4.31
5.08
5.53
5.44
4.71
3.52
2.31
1.71
2.21
4.03
6.90
10.19
13.06
14.61
14.14
11.22
5.79
-1.75
-10.54
-19.39
-26.99
-32.31
-34.90
-35.11
-33.97
-32.78
-32.60
-33.73
-35.54
-36.73
-35.89
-32.12
-25.42
-16.72
-7.43
0.99
7.56
11.83
13.82
13.75
11.97
8.98
5.44
2.21
0.08
-0.45
0.63
2.78
5.01
6.22
5.56
2.76
-1.71
-6.66
-10.59
-12.20
-10.79
-6.55
-0.38
6.47
12.84
17.93
21.36
23.02
22.94
21.18
17.89
13.41
8.31
3.24
-1.23
-4.78
-7.44
-9.59
-11.78
-14.52
-18.01
-21.82
-24.81
-25.25
-21.29
-11.71
3.41
22.37
42.18
59.45
71.38
76.59
75.24
68.72
58.95
47.90
37.29
28.41
22.05
18.28
16.41
15.20
13.39
10.23
5.79
0.84
-3.66
-7.04
-9.07
-9.79
-9.20
-7.07
-3.22
2.18
8.31
13.89
17.65
18.87
17.72
15.05
11.93
9.12
6.78
4.56
1.89
-1.59
-5.86
-10.51
-15.03
-19.04
-22.41
-25.29
-27.95
-30.57
-33.10
-35.15
-36.11
-35.30
-32.25
-26.93
-19.88
-12.00
-4.40
1.97
6.51
9.08
9.85
9.15
7.27
4.48
1.06
-2.63
-6.19
-9.30
-11.89
-14.28
-17.05
-20.81
-25.85
-31.82
-37.80
-42.47
-44.63
-43.60
-39.44
-32.79
-24.59
-15.75
-7.04
0.85
7.20
11.24
12.39
10.52
6.06
-0.04
-6.70
-13.02
-18.51
-23.10
-26.93
-30.19
-33.10
-35.88
-38.76
-41.89
-45.16
-48.06
-49.81
-49.66
-47.25
-42.72
-36.60
-29.46
-21.76
-13.84
-6.35
-0.50
1.91
-0.96
-10.15
-25.22
-44.02
-63.38
-80.26
-92.93
-101.71
-108.75
-116.98
-128.59
-143.83
-160.82
-176.42
-187.80
-193.70
-194.74
-192.66
-189.02
-184.19
-177.26
-166.87
-152.42
-134.72
-115.86
-98.27
-83.67
-72.23
-62.61
-52.41
-38.99
-20.23
5.00
36.61
73.39
113.25
153.56
191.59
225.13
253.04
275.56
294.03
310.08
324.49
336.27
342.56
339.44
323.56
294.00
253.48
208.57
168.36
141.90
135.12
148.35
175.59
206.17
228.29
233.18
217.94
185.88
144.56
102.41
65.99
38.72
21.25
12.72
11.66
16.37
24.59
33.34
39.32
39.83
33.80
22.27
8.10
-5.23
-14.91
-19.95
-21.33
-21.41
-22.71
-26.85
-33.85
-42.30
-50.15
-55.67
-58.23
-58.41
-57.72
-57.79
-59.73
-63.67
-68.85
-73.96
-77.72
-79.32
-78.60
-75.99
-72.07
-67.29
-61.74
-55.12
-46.97
-36.89
-24.79
-10.85
4.47
20.52
36.52
51.55
64.49
74.14
79.43
79.73
75.12
66.55
55.67
44.37
34.35
26.65
21.56
18.76
17.62
17.51
17.97
18.68
19.42
20.04
20.54
21.02
21.74
22.85
24.32
25.79
26.69
26.44
24.70
21.49
17.20
12.45
8.01
4.67
3.13
3.84
6.84
11.63
17.31
22.73
26.92
29.27
29.67
28.26
25.28
20.89
15.17
8.30
0.69
-6.88
-13.47
-18.22
-20.63
-20.76
-19.23
-17.05
-15.26
-14.64
-15.45
-17.41
-19.79
-21.68
-22.30
-21.27
-18.68
-15.04
-11.04
-7.37
-4.47
-2.54
-1.52
-1.34
-1.88
-3.08
-4.89
-7.19
-9.75
-12.31
-14.60
-16.50
-18.10
-19.69
-21.74
-24.67
-28.64
-33.31
-37.76
-40.74
-40.92
-37.45
-30.26
-20.19
-8.75
2.25
11.17
16.92
19.03
17.71
13.64
7.81
1.37
-4.52
-8.91
-11.18
-11.21
-9.44
-6.78
-4.43
-3.48
-4.58
-7.68
-11.98
-16.10
-18.57
-18.28
-14.90
-9.04
-2.01
4.51
9.04
10.74
9.60
6.44
2.51
-0.90
-2.96
-3.52
-3.08
-2.47
-2.41
-3.09
-4.07
-4.50
-3.51
-0.75
3.43
8.18
12.59
16.32
19.89
24.57
31.87
42.69
56.84
72.84
88.22
100.14
106.11
104.48
94.75
77.69
55.32
30.65
7.24
-11.55
-23.43
-27.80
-25.85
-20.07
-13.18
-7.22
-3.07
-0.68
0.31
-0.12
-2.50
-7.62
-15.85
-26.65
-38.48
-49.12
-56.19
-57.62
-51.88
-38.00
-15.51
15.63
54.80
100.39
149.26
196.63
236.59
263.25
272.47
263.42
239.09
205.69
170.87
141.46
121.52
111.49
108.31
106.77
101.08
86.68
61.58
27.03
-12.93
-52.75
-87.32
-113.62
-131.53
-143.36
-152.45
-161.56
-171.83
-182.77
-193.15
-201.96
-209.06
-214.96
-220.07
-224.08
-225.92
-224.44
-219.12
-210.25
-198.28
-182.87
-162.49
-135.26
-100.59
-60.68
-20.80
12.34
33.15
39.46
33.05
18.42
0.43
-17.58
-34.41
-50.18
-65.07
-78.52
-89.40
-96.80
-100.78
-102.41
-103.35
-105.04
-108.19
-112.67
-117.83
-122.86
-127.17
-130.41
-132.46
-133.19
-132.48
-130.05
-125.50
-118.24
-107.67
-93.39
-75.70
-55.95
-36.56
-20.37
-9.64
-4.95
-4.67
-5.25
-2.57
6.47
22.55
43.46
64.96
82.23
91.81
92.88
87.66
80.77
77.99
84.72
104.70
138.93
185.14
237.86
289.28
330.85
355.40
358.86
341.22
306.09
259.04
205.57
149.63
93.37
38.08
-14.57
-61.94
-101.13
-130.54
-151.13
-166.40
-180.59
-196.31
-212.90
-226.59
-232.74
-228.60
-214.86
-195.31
-174.60
-155.84
-139.33
-123.07
-104.52
-82.36
-57.37
-32.07
-9.65
7.21
17.01
19.61
16.02
7.83
-3.32
-16.21
-30.20
-44.94
-59.97
-74.41
-87.15
-97.34
-104.89
-110.43
-114.86
-118.63
-121.15
-120.82
-115.65
-104.08
-85.62
-60.95
-31.57
0.78
34.43
67.95
100.00
129.42
155.45
178.43
200.21
224.05
253.39
289.90
331.57
372.28
403.25
415.95
405.39
371.69
319.44
255.24
185.00
112.78
41.51
-25.39
-83.04
-125.84
-149.86
-155.13
-146.54
-132.27
-120.84
-117.99
-125.35
-140.86
-160.59
-180.82
-199.05
-214.17
-225.86
-234.20
-239.56
-242.83
-245.39
-248.55
-252.78
-256.87
-258.02
-252.84
-238.87
-215.68
-185.01
-149.80
-113.16
-77.37
-43.64
-12.36
16.72
44.45
72.33
102.19
135.26
171.11
207.27
239.92
265.53
282.59
292.20
297.26
300.62
303.37
304.23
300.40
289.03
268.74
240.31
206.56
171.57
139.52
113.74
95.80
85.18
79.49
75.38
69.81
61.08
49.22
35.62
22.25
10.90
2.71
-1.88
-3.03
-1.39
1.99
5.67
8.25
8.75
7.03
3.73
0.06
-2.65
-3.29
-1.11
4.10
11.88
20.77
28.42
32.12
29.78
21.08
8.00
-5.61
-15.40
-18.27
-13.67
-3.77
7.52
16.26
19.91
18.05
12.09
4.40
-2.70
-7.63
-9.77
-9.24
-6.55
-2.34
2.75
7.93
12.08
13.87
12.09
6.38
-2.39
-12.08
-19.93
-23.61
-22.19
-16.45
-8.43
-0.63
5.01
7.44
6.60
3.04
-2.38
-8.74
-15.11
-20.66
-24.74
-27.03
-27.58
-26.76
-25.02
-22.75
-20.09
-16.92
-12.94
-7.90
-1.71
5.34
12.68
19.60
25.53
30.28
34.13
37.67
41.50
45.85
50.50
54.84
58.26
60.55
62.06
63.56
65.82
69.18
73.28
77.32
80.50
82.55
84.01
86.08
90.19
97.44
108.12
121.44
135.47
147.35
153.87
152.23
140.88
120.05
91.64
58.60
23.79
-10.95
-45.29
-80.37
-118.11
-160.09
-206.41
-254.81
-300.72
-338.31
-362.26
-369.61
-360.69
-338.79
-308.70
-274.93
-240.57
-207.29
-175.92
-147.25
-122.18
-101.31
-84.42
-70.40
-57.69
-45.13
-32.41
-19.98
-8.65
0.90
8.39
13.66
16.33
15.61
10.63
1.10
-11.94
-25.94
-37.46
-43.56
-43.15
-37.79
-30.90
-26.12
-25.22
-26.81
-26.65
-19.29
-0.09
33.25
80.15
137.25
198.90
257.71
305.50
334.89
341.11
323.62
286.32
236.12
180.44
124.72
71.14
19.13
-32.91
-85.70
-137.91
-186.32
-227.05
-257.00
-274.94
-281.56
-278.68
-268.06
-250.30
-224.75
-190.18
-145.96
-93.23
-35.31
22.63
74.77
115.94
142.82
154.45
152.15
138.89
118.22
93.34
66.44
38.62
10.42
-17.51
-43.85
-66.49
-82.95
-90.84
-88.52
-75.36
-51.83
-19.51
19.09
60.55
100.63
134.63
158.02
167.59
162.39
144.28
117.52
87.51
59.03
34.91
15.44
-1.09
-17.17
-34.69
-54.01
-73.89
-92.03
-105.96
-113.91
-115.15
-109.99
-99.47
-85.05
-68.52
-51.93
-37.33
-26.14
-18.32
-12.22
-5.38
3.85
14.75
23.95
26.84
20.00
3.48
-18.82
-40.75
-56.87
-64.88
-66.39
-65.51
-66.28
-70.42
-76.45
-80.50
-78.16
-66.39
-44.69
-15.35
17.36
48.52
73.98
91.23
99.58
99.63
92.53
79.36
61.04
38.68
13.93
-10.94
-33.41
-51.47
-64.33
-72.70
-78.59
-84.67
-93.35
-106.23
-123.49
-143.90
-164.91
-183.09
-194.91
-197.53
-189.67
-171.99
-147.13
-118.99
-91.81
-68.91
-51.71
-39.31
-28.85
-16.83
-0.62
20.32
44.35
68.77
91.38
111.60
130.36
149.06
168.36
187.66
205.59
221.10
234.08
245.06
254.09
259.84
259.81
251.77
235.40
213.04
188.90
167.05
149.61
136.10
124.36
112.40
100.09
89.52
84.01
86.23
96.60
112.67
130.00
143.62
149.62
146.01
132.63
110.20
79.26
39.54
-9.43
-66.70
-128.57
-188.31
-237.56
-269.13
-279.40
-269.06
-241.94
-202.63
-155.04
-102.45
-49.11
-1.42
33.10
49.13
47.17
34.61
22.97
21.97
34.20
53.56
68.62
68.97
50.87
18.61
-18.52
-51.53
-75.96
-92.54
-104.57
-114.39
-121.33
-122.26
-114.31
-97.42
-74.95
-52.52
-35.45
-26.60
-25.69
-30.04
-36.34
-42.07
-46.28
-49.31
-52.07
-55.18
-58.50
-61.25
-62.53
-61.87
-59.70
-57.25
-56.02
-57.02
-59.99
-63.15
-63.76
-59.12
-47.86
-30.59
-9.81
11.07
28.93
41.81
49.24
51.80
50.42
46.01
39.27
30.98
22.12
13.91
7.42
3.24
1.21
0.44
-0.34
-2.45
-6.90
-14.13
-23.86
-34.90
-45.22
-52.27
-53.60
-47.66
-34.42
-15.45
6.47
28.21
47.11
61.43
70.41
73.97
72.46
66.48
56.82
44.56
30.97
17.41
4.99
-5.51
-13.87
-20.37
-25.74
-31.00
-37.28
-45.49
-56.06
-68.62
-81.98
-94.27
-103.49
-108.09
-107.50
-102.35
-94.28
-85.47
-78.01
-73.45
-72.57
-75.47
-81.79
-90.88
-101.97
-114.14
-126.34
-137.37
-145.89
-150.49
-149.77
-142.55
-128.20
-106.92
-79.90
-49.19
-17.21
13.89
42.79
69.24
93.94
118.25
143.81
172.30
204.99
242.01
281.75
320.43
352.68
373.03
377.81
366.50
341.78
308.36
271.11
233.75
198.50
166.68
139.43
117.96
103.09
94.43
90.08
86.88
81.44
71.19
55.19
34.33
11.03
-11.49
-30.09
-42.45
-47.70
-46.51
-40.75
-32.80
-24.72
-17.83
-12.57
-8.81
-6.21
-4.49
-3.45
-2.95
-2.83
-2.93
-3.26
-4.08
-5.99
-9.73
-15.84
-24.24
-33.91
-42.95
-49.04
-50.22
-45.71
-36.25
-24.02
-11.84
-2.28
3.21
4.41
2.15
-2.31
-7.79
-13.42
-18.59
-22.79
-25.46
-26.20
-24.96
-22.24
-19.06
-16.65
-16.11
-17.98
-22.24
-28.34
-35.43
-42.64
-49.09
-53.96
-56.49
-56.06
-52.44
-45.94
-37.46
-28.33
-19.92
-13.12
-8.15
-4.57
-1.59
1.43
4.67
7.82
10.24
11.42
11.30
10.33
9.39
9.36
10.87
14.07
18.69
24.09
29.45
33.95
36.85
37.73
36.59
33.96
30.86
28.48
27.80
29.22
32.32
35.93
38.42
38.11
33.67
24.44
10.56
-6.96
-26.37
-45.52
-62.19
-74.55
-81.43
-82.51
-78.33
-70.20
-60.04
-50.02
-42.18
-37.82
-37.08
-38.74
-40.57
-40.15
-35.80
-27.22
-15.62
-3.19
7.80
15.70
19.96
20.94
19.50
16.57
12.82
8.69
4.52
0.69
-2.34
-4.22
-4.82
-4.41
-3.54
-2.90
-3.00
-4.02
-5.72
-7.54
-8.78
-8.80
-7.14
-3.67
1.38
7.45
13.78
19.62
24.35
27.58
29.14
28.99
27.21
24.03
19.89
15.45
11.53
8.88
7.93
8.61
10.41
12.53
14.11
14.44
13.17
10.42
6.74
3.01
0.20
-0.97
-0.29
1.78
4.26
6.03
6.25
4.73
2.02
-0.91
-3.06
-3.88
-3.42
-2.25
-1.18
-0.93
-1.95
-4.38
-8.17
-13.15
-19.01
-25.37
-31.75
-37.66
-42.73
-46.75
-49.65
-51.29
-51.37
-49.46
-45.16
-38.38
-29.58
-19.68
-9.79
-0.86
6.60
12.46
16.73
19.31
19.88
18.15
14.10
8.33
1.95
-3.76
-7.88
-10.24
-11.40
-12.34
-13.97
-16.76
-20.68
-25.28
-29.87
-33.66
-35.74
-35.29
-31.67
-24.80
-15.26
-4.26
6.66
16.09
23.06
27.13
28.28
26.72
22.87
17.35
11.06
5.01
0.18
-2.89
-4.21
-4.36
-4.22
-4.69
-6.39
-9.55
-13.93
-18.85
-23.24
-25.81
-25.35
-21.12
-13.12
-2.19
10.16
22.24
32.55
40.15
44.67
46.25
45.35
42.55
38.56
34.12
30.00
26.78
24.85
24.23
24.67
25.72
26.93
27.94
28.58
28.90
29.17
29.93
31.98
36.29
43.69
54.60
68.70
84.98
102.00
118.38
133.16
145.64
154.98
159.66
157.56
146.73
126.88
100.37
72.09
47.66
30.95
22.18
17.69
11.67
-1.34
-24.29
-57.06
-97.16
-140.99
-184.55
-223.31
-251.82
-264.28
-256.40
-227.86
-183.95
-134.82
-92.48
-66.61
-61.36
-74.75
-100.37
-130.44
-158.37
-179.71
-191.59
-191.70
-177.95
-149.37
-107.48
-57.05
-5.52
38.89
69.48
82.68
78.45
59.67
30.93
-2.48
-35.39
-63.28
-82.65
-91.47
-89.38
-77.74
-59.35
-37.93
-17.44
-1.32
8.12
10.36
6.73
0.12
-6.02
-8.90
-7.35
-2.25
4.00
8.42
8.59
3.48
-6.30
-18.66
-30.49
-38.39
-39.48
-32.18
-16.74
4.71
28.73
51.57
70.12
82.54
88.22
87.43
80.75
68.84
52.41
32.51
10.70
-11.09
-30.88
-47.22
-59.56
-68.37
-74.93
-80.80
-86.97
-93.18
-97.58
-96.94
-87.52
-66.26
-32.05
13.35
65.16
116.31
159.13
187.24
197.34
189.84
168.52
139.06
107.44
78.55
55.51
39.63
30.59
26.69
25.18
22.62
15.79
2.56
-17.43
-42.67
-70.47
-97.81
-122.13
-141.48
-154.41
-159.78
-156.74
-144.89
-124.51
-96.54
-62.29
-23.35
18.47
60.72
100.15
132.81
154.89
163.91
159.70
144.75
123.37
100.26
78.99
61.11
46.13
32.37
17.87
1.30
-17.68
-38.29
-58.60
-75.85
-86.91
-89.13
-81.34
-64.41
-41.21
-15.70
8.31
28.22
43.03
52.95
58.65
60.68
59.38
55.11
48.60
40.92
33.24
26.43
20.83
16.31
12.54
9.07
5.40
0.86
-5.27
-13.37
-22.93
-32.29
-38.95
-40.52
-35.79
-25.42
-11.72
2.38
14.56
23.79
30.27
34.62
37.07
37.08
33.82
26.91
17.08
6.15
-3.60
-10.39
-13.68
-14.27
-13.97
-14.85
-18.58
-25.99
-36.75
-49.34
-61.13
-68.80
-69.12
-59.99
-41.24
-14.90
15.35
45.38
71.72
92.41
106.84
115.17
117.58
113.96
104.18
88.57
68.47
46.15
24.23
4.97
-10.39
-21.83
-30.22
-36.78
-42.58
-48.32
-54.39
-60.89
-67.51
-73.27
-76.34
-74.33
-65.01
-47.38
-22.21
7.92
39.55
69.58
96.14
118.70
137.44
152.20
161.93
164.79
159.09
144.37
122.02
95.19
67.80
43.50
24.73
12.40
6.09
4.46
5.56
6.97
5.94
-0.15
-13.08
-32.87
-57.26
-82.05
-102.20
-113.52
-113.95
-104.19
-87.15
-66.76
-46.67
-29.27
-15.51
-5.20
2.37
7.89
11.76
14.12
15.01
14.40
12.36
9.00
4.60
-0.39
-5.35
-9.58
-12.55
-14.11
-14.71
-15.39
-17.37
-21.49
-27.52
-33.98
-38.38
-38.10
-31.36
-18.07
0.11
20.17
38.76
53.04
61.34
63.25
59.34
50.74
38.79
24.86
10.21
-4.11
-17.29
-28.89
-38.82
-47.16
-53.93
-58.87
-61.37
-60.66
-56.20
-48.09
-37.13
-24.55
-11.57
1.12
13.51
26.02
39.06
52.58
65.98
78.11
87.58
92.93
92.92
86.74
74.32
56.59
35.44
13.38
-7.07
-24.04
-36.72
-45.37
-50.90
-54.47
-57.04
-59.23
-61.42
-63.86
-66.86
-70.70
-75.35
-80.16
-83.64
-83.64
-77.99
-65.29
-45.65
-20.70
6.91
34.45
59.97
82.54
102.03
118.46
131.45
140.15
143.57
141.07
132.78
119.71
103.43
85.60
67.61
50.29
33.90
18.25
2.93
-12.60
-28.88
-46.31
-64.72
-83.01
-98.89
-109.13
-110.56
-101.18
-81.24
-53.43
-22.17
7.81
32.89
51.39
63.58
70.97
75.39
78.22
80.09
80.88
80.03
76.75
70.35
60.39
46.84
30.03
10.66
-10.28
-31.64
-52.34
-71.41
-88.09
-101.68
-111.41
-116.33
-115.50
-108.38
-95.27
-77.55
-57.38
-37.19
-18.90
-3.50
8.95
18.94
26.96
33.27
37.90
40.87
42.36
42.64
41.92
40.18
37.17
32.62
26.46
18.96
10.62
1.99
-6.62
-14.99
-22.81
-29.26
-32.93
-32.15
-25.67
-13.40
3.22
21.49
38.26
50.90
57.98
59.37
55.88
48.64
38.63
26.55
13.08
-0.93
-14.30
-25.67
-33.81
-37.82
-37.33
-32.41
-23.59
-11.90
0.93
12.35
19.36
19.25
10.77
-5.02
-24.71
-43.45
-56.63
-61.48
-57.87
-47.96
-35.00
-21.90
-10.43
-1.15
5.90
10.49
11.89
9.16
1.87
-9.38
-22.75
-35.73
-45.89
-51.71
-52.98
-50.64
-46.28
-41.60
-37.94
-36.14
-36.29
-37.67
-38.70
-37.32
-31.67
-20.86
-5.55
12.12
29.32
43.59
53.61
59.38
61.73
61.52
59.22
54.82
48.26
39.89
30.54
21.25
12.75
5.08
-2.49
-11.13
-21.99
-35.70
-52.13
-70.28
-88.33
-103.80
-113.90
-116.21
-109.36
-93.71
-71.37
-45.63
-19.84
3.65
24.09
42.00
58.41
73.83
87.76
98.81
105.36
106.27
101.37
91.36
77.52
61.17
43.39
24.85
5.83
-13.59
-33.40
-53.32
-72.47
-89.16
-101.01
-105.55
-101.17
-87.87
-67.49
-43.23
-18.61
3.60
21.94
36.10
46.28
52.63
55.00
53.25
47.70
39.48
30.35
22.20
16.30
12.89
11.07
9.16
5.28
-2.16
-13.95
-29.84
-48.37
-66.96
-82.29
-90.95
-90.40
-79.76
-60.21
-34.73
-7.27
18.30
39.13
53.79
62.15
64.98
63.55
59.22
53.28
46.84
40.72
35.34
30.60
26.02
20.76
13.98
5.10
-6.09
-19.25
-33.62
-47.97
-60.66
-69.67
-72.83
-68.22
-54.65
-32.20
-2.35
32.10
67.55
100.24
126.94
145.43
154.80
155.35
148.41
136.16
121.78
109.29
103.02
106.13
118.98
138.00
156.18
165.07
157.75
131.16
86.89
30.19
-31.96
-92.63
-145.60
-185.46
-207.62
-208.93
-188.89
-150.66
-101.04
-49.05
-3.74
27.99
42.78
41.13
26.63
4.57
-19.51
-40.91
-56.42
-64.34
-64.33
-57.19
-44.84
-30.12
-16.54
-7.53
-5.60
-11.60
-24.47
-41.60
-59.46
-74.36
-83.09
-83.45
-74.60
-57.43
-34.63
-10.37
10.68
24.62
29.55
26.22
17.55
7.57
-0.01
-2.87
-0.69
5.06
11.85
17.22
20.00
20.96
22.52
27.40
36.92
49.93
63.07
72.47
75.66
72.76
66.06
58.40
51.58
45.78
40.29
34.72
29.58
25.78
23.56
21.89
18.85
12.77
3.40
-7.98
-19.37
-29.23
-37.26
-44.31
-51.64
-60.16
-69.88
-79.97
-89.11
-95.85
-98.99
-97.93
-92.99
-85.49
-77.33
-70.28
-65.12
-61.23
-56.91
-50.41
-40.96
-29.54
-18.74
-11.79
-11.26
-17.92
-30.38
-45.46
-59.09
-67.45
-67.69
-58.49
-40.13
-14.40
15.56
45.75
71.93
90.30
98.32
95.21
82.18
62.07
38.64
15.70
-3.61
-17.21
-24.04
-23.88
-17.22
-5.18
10.48
27.38
43.01
55.31
63.32
67.29
68.26
67.12
64.00
58.24
49.11
36.91
23.69
12.95
8.48
13.04
27.40
50.27
78.89
109.64
138.41
160.93
173.41
173.96
163.87
147.71
131.68
120.56
115.13
111.65
103.97
87.25
60.94
29.30
-0.90
-23.91
-37.80
-44.88
-50.01
-57.91
-71.29
-90.24
-112.96
-136.85
-159.04
-176.70
-187.13
-188.28
-179.35
-161.46
-137.56
-111.62
-87.27
-66.57
-49.39
-33.75
-16.81
3.91
29.49
59.16
90.51
120.03
144.02
159.40
164.36
158.50
142.75
118.90
89.22
56.00
21.41
-12.64
-44.76
-74.14
-100.56
-124.25
-145.61
-164.94
-182.32
-197.68
-210.71
-220.64
-226.25
-226.03
-218.88
-204.96
-185.55
-162.53
-136.90
-107.71
-72.47
-28.68
23.82
81.64
138.22
186.04
219.10
234.57
233.02
217.32
191.16
158.18
121.99
86.43
55.23
30.76
12.90
-1.00
-14.58
-29.95
-45.84
-57.90
-61.49
-55.18
-42.54
-30.72
-26.26
-30.63
-37.85
-36.78
-16.66
26.67
87.46
151.75
202.78
227.43
220.21
183.75
126.06
57.01
-13.99
-78.56
-129.09
-158.88
-163.65
-143.66
-105.23
-59.95
-21.31
0.23
1.17
-14.35
-37.43
-59.28
-75.45
-87.06
-98.54
-113.44
-130.86
-144.68
-146.08
-127.60
-87.06
-29.11
36.06
95.89
138.64
156.05
144.70
106.80
49.73
-15.34
-75.93
-121.73
-147.64
-155.51
-153.12
-150.83
-156.97
-174.27
-199.04
-223.31
-238.77
-240.35
-227.65
-203.90
-173.39
-139.14
-102.55
-64.22
-25.39
11.51
43.75
70.71
95.31
123.42
161.02
210.46
267.50
321.84
360.43
372.78
355.13
311.53
251.72
187.33
128.58
82.78
54.43
45.53
55.27
79.26
109.55
136.43
151.80
152.31
140.46
122.66
105.54
92.63
83.03
73.13
59.65
42.14
23.39
8.03
-0.01
0.65
8.73
21.84
38.46
59.05
85.33
118.05
154.87
189.74
214.44
221.83
208.73
177.12
132.94
83.63
35.74
-6.34
-40.40
-65.80
-82.90
-92.98
-98.06
-100.51
-102.16
-103.56
-103.80
-101.18
-94.12
-82.06
-65.66
-46.40
-26.04
-6.10
12.38
28.88
43.36
56.23
68.06
79.19
89.35
97.39
101.31
98.80
87.85
67.57
38.67
3.59
-33.74
-68.64
-96.65
-114.56
-121.12
-117.31
-106.02
-91.18
-76.64
-65.24
-58.27
-55.58
-56.12
-58.65
-62.29
-66.58
-71.40
-76.70
-82.30
-87.93
-93.35
-98.44
-103.15
-107.32
-110.61
-112.46
-112.31
-109.73
-104.60
-97.11
-87.63
-76.78
-65.44
-54.77
-46.10
-40.64
-39.09
-41.34
-46.49
-53.12
-59.75
-65.25
-69.00
-70.77
-70.39
-67.59
-62.15
-54.28
-45.22
-37.18
-32.88
-34.42
-42.00
-53.39
-64.26
-69.51
-64.97
-48.73
-21.64
13.26
51.72
89.32
122.10
146.85
161.26
164.08
155.44
136.95
111.48
82.56
53.57
27.03
4.26
-14.58
-30.19
-43.66
-56.28
-69.16
-83.00
-97.77
-112.38
-124.70
-131.81
-130.78
-119.57
-97.77
-66.97
-30.48
7.23
41.58
68.73
86.34
93.79
92.12
83.44
70.26
54.89
39.13
24.20
10.93
-0.17
-8.93
-15.69
-21.46
-27.72
-35.95
-46.95
-60.27
-74.15
-85.95
-93.05
-93.68
-87.57
-76.08
-61.84
-48.13
-37.95
-33.12
-33.66
-37.58
-41.41
-41.30
-34.39
-19.93
0.33
22.56
41.89
53.56
54.05
42.10
19.42
-8.90
-35.18
-51.05
-50.31
-31.53
1.15
39.38
73.92
98.18
110.26
112.59
109.76
105.99
103.56
102.95
104.06
107.33
113.84
124.21
137.16
148.61
152.34
142.07
114.11
69.45
14.03
-42.98
-92.35
-127.80
-147.78
-154.96
-154.11
-149.55
-143.41
-135.40
-124.01
-108.12
-88.13
-66.15
-45.26
-28.25
-16.47
-9.45
-5.17
-1.05
4.75
12.45
20.36
25.58
25.11
16.95
0.77
-22.22
-49.74
-79.24
-108.26
-134.63
-156.59
-172.98
-183.40
-188.16
-187.92
-183.07
-173.39
-158.13
-136.68
-109.16
-76.69
-40.83
-2.76
37.46
80.73
127.91
178.37
228.92
273.92
306.74
321.96
317.17
293.62
255.27
207.17
153.97
99.32
46.18
-2.46
-43.36
-73.61
-91.58
-97.46
-92.96
-80.42
-62.09
-40.31
-18.37
-0.84
7.32
2.96
-13.00
-34.96
-54.60
-64.51
-61.68
-48.66
-31.92
-18.33
-12.11
-13.69
-20.94
-31.50
-44.40
-60.07
-79.06
-100.42
-120.99
-135.97
-140.08
-128.81
-99.73
-53.12
7.00
72.29
130.99
170.85
183.38
167.67
131.23
87.30
49.75
28.49
27.39
45.26
78.23
121.41
168.90
213.09
244.95
256.33
243.08
207.23
156.21
99.36
43.93
-7.06
-54.11
-98.53
-140.02
-176.22
-204.05
-221.38
-228.41
-227.06
-219.61
-207.48
-190.97
-169.84
-144.54
-116.64
-88.71
-63.48
-42.95
-27.94
-18.09
-12.38
-9.57
-8.69
-9.24
-11.05
-14.07
-17.96
-21.95
-25.05
-26.59
-26.75
-26.70
-28.08
-32.06
-38.34
-44.79
-47.84
-43.71
-29.89
-6.16
25.16
59.90
93.49
122.23
144.26
159.55
169.34
175.10
177.83
177.66
174.18
166.79
155.17
139.42
119.97
97.49
72.76
46.68
20.27
-5.24
-28.45
-47.67
-61.01
-66.47
-62.40
-48.14
-24.61
5.50
38.03
68.37
92.64
108.65
116.21
116.91
113.22
107.77
102.73
99.54
98.79
100.13
102.31
103.33
101.11
94.27
82.86
68.61
54.51
43.94
39.52
42.36
51.53
64.29
76.51
83.62
81.61
68.18
43.73
11.52
-22.88
-53.04
-73.41
-80.79
-75.01
-58.67
-36.33
-13.33
5.16
15.16
14.45
2.98
-17.08
-41.90
-66.97
-88.17
-102.80
-109.86
-110.02
-105.02
-97.12
-88.55
-81.14
-75.91
-72.96
-71.48
-70.15
-67.68
-63.45
-57.77
-51.76
-46.87
-44.28
-44.36
-46.56
-49.60
-51.95
-52.39
-50.60
-47.47
-45.06
-45.96
-52.44
-65.36
-83.63
-104.34
-123.65
-138.00
-145.28
-145.37
-140.01
-131.95
-123.80
-117.08
-111.59
-105.41
-95.36
-77.99
-50.97
-14.36
28.77
72.67
110.59
136.84
148.81
147.74
138.07
125.56
115.06
109.09
107.64
109.11
111.65
113.86
114.70
113.02
107.21
95.61
77.27
52.83
24.61
-3.98
-29.64
-50.13
-64.66
-73.55
-77.41
-76.68
-71.49
-62.04
-48.97
-33.60
-17.65
-2.77
9.97
20.32
28.78
36.15
43.01
49.33
54.36
56.87
55.52
49.39
38.17
22.32
2.86
-18.83
-41.11
-62.20
-80.22
-93.38
-100.31
-100.50
-94.63
-84.50
-72.74
-61.99
-54.28
-50.51
-50.42
-52.90
-56.55
-60.20
-63.31
-66.16
-69.73
-75.40
-84.31
-96.74
-111.58
-126.24
-137.42
-142.08
-138.74
-128.31
-113.70
-98.83
-87.04
-79.91
-76.96
-75.85
-72.82
-63.13
-41.84
-5.37
46.43
108.71
171.59
222.54
250.57
250.35
224.30
181.34
133.11
89.50
55.83
32.72
18.10
9.75
6.64
8.80
15.93
26.31
36.54
42.61
41.55
32.56
17.55
0.05
-16.11
-28.16
-35.07
-37.44
-36.91
-35.31
-33.98
-33.32
-32.95
-31.89
-29.10
-23.86
-16.08
-6.10
5.47
18.01
30.90
43.31
54.08
61.77
65.07
63.36
57.07
47.80
37.86
29.62
24.93
24.81
29.62
39.26
53.33
70.98
90.65
109.86
125.68
135.60
138.70
136.23
131.35
127.81
128.29
133.15
140.26
146.11
147.45
142.70
132.39
118.54
103.43
88.58
74.32
60.09
45.25
29.73
14.32
0.31
-11.19
-19.79
-26.08
-31.14
-35.88
-40.33
-43.51
-43.89
-40.23
-32.32
-21.17
-8.54
3.91
15.26
25.41
34.70
43.30
50.92
57.00
61.03
62.80
62.25
59.15
53.00
43.25
29.82
13.65
-3.40
-19.01
-31.36
-39.74
-44.72
-47.70
-50.20
-53.23
-56.93
-60.78
-64.03
-66.33
-68.15
-70.78
-76.03
-85.44
-99.55
-117.41
-136.67
-154.33
-167.80
-175.77
-178.67
-178.20
-176.38
-174.73
-173.51
-171.78
-167.72
-159.26
-144.50
-121.99
-91.04
-52.39
-9.03
33.53
68.19
88.51
91.36
78.77
57.58
36.92
24.51
23.70
32.75
46.38
58.82
66.30
68.06
65.48
60.45
54.10
46.60
37.99
28.93
21.03
16.30
16.28
21.16
29.59
39.19
47.52
52.93
54.96
54.15
51.35
47.09
41.03
32.20
19.56
2.78
-17.22
-38.34
-57.93
-73.77
-84.85
-91.55
-95.12
-96.87
-97.41
-96.54
-93.56
-87.89
-79.39
-68.46
-55.82
-42.33
-28.89
-16.55
-6.45
0.40
3.47
3.01
0.02
-4.00
-7.57
-9.67
-9.83
-8.12
-4.94
-0.80
3.79
8.36
12.50
15.92
18.51
20.49
22.40
25.00
28.96
34.58
41.47
48.63
54.71
58.51
59.35
57.36
53.63
50.04
49.02
53.08
64.02
82.16
105.78
131.24
153.90
169.44
175.17
170.48
156.53
135.24
108.46
77.46
43.35
7.47
-28.22
-61.47
-90.37
-113.90
-132.06
-145.44
-154.41
-158.69
-157.49
-150.24
-137.52
-121.42
-105.28
-92.60
-85.75
-85.12
-88.96
-94.04
-96.79
-94.24
-84.61
-67.54
-44.08
-16.66
10.95
34.17
48.56
51.04
40.82
19.54
-9.67
-43.40
-78.91
-114.23
-147.39
-175.55
-194.77
-200.94
-191.36
-166.44
-130.28
-89.91
-53.21
-26.62
-13.29
-12.42
-19.82
-29.09
-33.52
-27.28
-6.64
29.19
77.59
132.57
185.78
228.52
254.44
261.92
255.03
242.32
233.94
238.07
258.10
291.81
332.40
370.98
399.21
411.43
405.55
382.89
347.24
303.58
256.73
210.34
166.46
125.45
86.52
48.53
10.74
-26.55
-62.06
-93.86
-120.02
-139.30
-151.75
-158.81
-162.92
-167.01
-173.59
-184.05
-198.24
-214.63
-230.83
-244.53
-254.19
-259.45
-261.00
-259.85
-256.48
-250.25
-239.26
-220.71
-191.77
-150.65
-97.84
-36.96
25.32
80.44
120.16
138.99
136.02
115.37
84.86
53.61
29.26
15.94
13.60
18.81
26.55
32.04
32.00
25.04
11.36
-7.78
-30.37
-53.80
-74.84
-89.93
-96.00
-91.31
-76.24
-53.18
-25.89
1.62
26.00
44.91
57.08
62.00
59.82
51.34
37.99
21.73
4.77
-10.75
-23.07
-31.04
-34.22
-32.96
-28.22
-21.36
-13.76
-6.49
-0.21
4.83
8.55
10.81
11.35
9.85
6.19
0.63
-6.19
-13.45
-20.47
-26.90
-32.61
-37.32
-40.14
-39.57
-34.02
-22.82
-7.14
10.21
25.84
37.29
43.86
46.33
45.67
41.92
34.04
20.92
2.85
-17.84
-37.40
-52.23
-60.49
-62.45
-59.81
-54.28
-46.82
-37.50
-26.50
-14.79
-4.38
2.14
2.80
-2.38
-10.31
-15.27
-10.94
6.53
35.93
70.42
99.80
114.78
111.15
91.65
64.44
39.20
23.01
18.10
22.38
31.66
41.99
50.65
55.79
55.50
47.61
30.36
3.71
-29.75
-64.93
-95.40
-115.52
-122.12
-115.35
-98.22
-75.30
-51.05
-28.63
-9.41
6.69
20.38
32.20
42.07
49.39
53.37
53.65
50.45
44.57
37.03
28.62
19.59
9.77
-1.16
-13.00
-24.60
-33.69
-37.44
-33.33
-20.32
0.44
25.67
50.79
71.28
83.90
87.48
82.81
72.01
57.68
42.15
27.19
13.90
2.86
-5.73
-11.91
-15.96
-18.40
-19.97
-21.51
-23.77
-27.14
-31.45
-36.03
