1714386809.00
64.000000
-0.00
-0.00
-0.00
-0.00
-0.00
-0.00
-0.00
-0.00
-0.00
-0.00
0.00
0.01
0.01
-0.00
-0.03
-0.05
-0.05
0.00
0.13
0.36
0.66
1.01
1.37
1.72
2.06
2.40
2.79
3.24
3.80
4.42
5.06
5.66
6.20
6.68
7.15
7.68
8.31
9.14
10.09
11.04
11.88
12.56
13.14
13.76
14.65
15.96
17.91
20.32
22.90
25.38
27.58
29.57
31.68
34.32
37.81
42.54
48.15
54.10
59.83
64.97
69.58
74.14
79.34
85.71
93.76
103.00
112.62
121.73
129.77
136.75
143.30
150.75
157.77
166.64
177.95
191.79
206.97
220.57
228.25
225.36
208.53
176.87
132.76
80.05
23.07
-34.94
-92.44
-149.16
-205.23
-260.37
-313.74
-363.87
-409.83
-450.91
-486.50
-515.74
-537.23
-549.22
-549.96
-538.37
-514.21
-478.67
-433.88
-382.45
-327.02
-269.84
-212.63
-156.66
-102.95
-52.37
-5.90
35.58
71.43
101.35
125.50
144.38
158.69
169.15
176.37
180.75
182.57
182.07
179.51
175.23
169.65
163.18
156.15
148.81
141.30
133.69
126.02
118.33
110.69
103.16
95.80
88.68
81.83
75.25
68.95
62.95
57.25
51.86
46.78
42.03
37.59
33.45
29.61
26.07
22.81
19.83
17.11
14.67
12.48
10.54
8.83
7.35
6.07
4.97
4.05
3.27
2.62
2.09
1.65
1.30
1.01
0.79
0.61
0.48
0.37
0.29
0.24
0.20
0.18
0.17
0.17
0.19
0.21
0.24
0.27
0.31
0.35
0.39
0.43
0.48
0.53
0.57
0.62
0.67
0.73
0.80
0.88
0.96
1.03
1.09
1.13
1.15
1.18
1.23
1.31
1.43
1.58
1.75
1.95
2.16
2.39
2.65
2.95
3.31
3.71
4.15
4.60
5.04
5.46
5.88
6.33
6.85
7.46
8.16
8.92
9.65
10.31
10.87
11.37
11.89
12.53
13.35
14.33
15.34
16.21
16.74
16.79
16.28
15.22
13.69
11.67
9.13
5.95
1.99
-2.87
-8.53
-14.72
-21.07
-27.17
-32.67
-37.33
-41.06
-43.87
-45.89
-47.41
-48.92
-50.89
-53.42
-55.86
-56.92
-55.01
-48.91
-38.35
-24.13
-7.90
8.51
23.53
36.09
45.50
51.33
53.28
51.44
46.41
39.34
31.65
24.65
19.15
15.26
12.66
10.85
9.44
8.35
7.54
7.11
7.05
7.19
7.34
7.32
7.05
6.51
5.65
4.26
2.25
-0.27
-2.86
-4.97
-6.16
-6.36
-5.93
-5.51
-5.88
-7.43
-10.17
-13.75
-17.64
-21.16
-23.54
-24.02
-20.66
-12.65
-0.27
15.11
31.28
45.91
57.25
64.42
67.47
66.96
63.44
57.48
49.78
41.22
32.89
25.82
20.70
17.69
16.45
16.16
16.07
15.69
14.89
13.80
12.57
11.26
9.71
7.62
4.62
0.53
-4.44
-9.83
-15.04
-19.58
-23.30
-26.34
-29.17
-32.38
-36.46
-41.64
-47.63
-53.46
-57.64
-58.46
-54.61
-45.80
-33.00
-18.22
-3.86
8.08
16.50
21.23
22.77
21.85
19.13
15.20
10.67
6.21
2.50
-0.04
-1.38
-1.87
-2.03
-2.23
-2.51
-2.64
-2.36
-1.66
-0.96
-0.94
-2.24
-5.08
-9.16
-13.74
-17.97
-21.28
-23.52
-25.03
-26.41
-28.35
-31.38
-35.57
-40.27
-44.09
-45.15
-41.75
-32.99
-19.33
-2.46
15.14
31.06
43.52
51.70
55.66
55.97
53.53
49.36
44.45
39.67
35.63
32.57
30.42
28.89
27.71
26.69
25.73
24.77
23.67
22.34
20.69
18.78
16.72
14.67
12.72
10.90
9.11
7.18
4.85
1.79
-2.32
-7.78
-14.62
-22.47
-30.30
-36.57
-39.55
-37.88
-31.21
-20.39
-7.40
5.32
15.58
22.06
24.52
23.67
20.58
16.17
10.91
4.78
-2.34
-10.33
-18.58
-26.05
-31.76
-35.11
-36.26
-35.89
-34.93
-34.01
-33.36
-32.82
-32.23
-31.58
-31.09
-31.09
-31.75
-33.06
-34.82
-36.74
-38.62
-40.44
-42.47
-45.28
-49.55
-55.67
-63.32
-71.25
-77.47
-79.96
-77.50
-70.28
-59.87
-48.70
-39.12
-32.73
-30.08
-30.95
-34.85
-41.43
-50.67
-62.61
-77.02
-93.23
-110.13
-126.49
-141.33
-154.03
-164.40
-172.53
-178.63
-183.02
-186.13
-188.53
-190.78
-193.12
-195.32
-196.49
-195.49
-191.41
-184.14
-174.75
-165.41
-158.93
-158.01
-164.33
-177.89
-196.64
-216.88
-234.19
-244.74
-246.32
-238.88
-224.11
-204.50
-182.32
-158.84
-134.23
-108.07
-80.07
-50.75
-21.63
5.20
27.82
45.25
57.91
67.39
75.86
85.21
96.58
110.18
125.64
142.24
159.08
174.91
188.18
197.30
201.16
199.77
194.36
187.01
179.75
173.88
169.67
166.49
163.26
158.93
152.84
144.93
135.88
127.08
120.35
117.34
118.91
124.80
133.53
142.96
150.93
155.86
157.03
154.43
148.53
140.00
129.49
117.68
105.27
93.01
81.54
71.38
62.77
55.64
49.67
44.41
39.47
34.62
29.82
25.20
20.99
17.39
14.61
12.79
12.06
12.46
13.90
16.09
18.41
20.00
19.97
17.77
13.62
8.65
4.73
3.96
7.89
16.96
30.31
46.08
61.99
76.03
86.87
93.85
96.86
96.06
91.82
84.67
75.43
65.16
54.98
45.84
38.31
32.43
27.90
24.15
20.67
17.09
13.19
8.83
3.82
-2.02
-8.83
-16.55
-24.89
-33.26
-40.93
-47.23
-51.69
-54.23
-55.17
-55.11
-54.76
-54.54
-54.25
-53.01
-49.41
-41.99
-29.97
-13.66
5.51
25.29
43.35
57.84
67.72
72.79
73.40
70.17
63.85
55.28
45.41
35.27
25.82
17.72
11.18
5.87
1.00
-4.41
-11.13
-19.35
-28.51
-37.35
-44.33
-48.23
-48.45
-45.23
-39.32
-31.60
-22.82
-13.53
-4.27
4.28
11.28
15.93
17.76
16.94
14.24
10.87
8.16
7.22
8.62
12.36
17.88
24.19
30.20
34.97
37.93
38.87
37.92
35.32
31.41
26.55
21.17
15.88
11.40
8.46
7.59
8.91
12.04
16.14
20.12
23.03
24.31
24.02
22.74
21.28
20.24
19.69
19.13
17.76
14.93
10.48
4.91
-0.90
-5.96
-9.58
-11.47
-11.66
-10.32
-7.62
-3.71
1.19
6.78
12.69
18.63
24.50
30.38
36.45
42.85
49.54
56.37
63.21
70.11
77.40
85.73
95.76
107.58
120.25
131.57
138.78
139.61
133.52
122.20
108.97
97.49
90.18
87.45
87.88
89.35
90.12
89.35
86.91
82.72
76.42
67.51
55.96
42.73
29.66
18.79
11.50
7.90
6.92
6.84
6.27
4.67
2.49
0.65
0.07
1.21
3.99
7.97
12.57
17.19
21.18
23.88
24.68
23.34
20.15
16.04
12.46
11.03
13.14
19.39
29.10
40.14
49.09
52.13
46.29
30.68
7.06
-20.63
-47.70
-70.45
-87.31
-99.00
-107.45
-114.53
-120.94
-126.11
-128.91
-128.64
-125.68
-121.46
-117.82
-116.20
-117.04
-119.61
-122.35
-123.38
-121.10
-114.63
-104.07
-90.34
-74.87
-58.97
-43.46
-28.30
-12.77
4.12
23.17
44.60
67.89
91.78
114.30
133.03
145.64
150.62
147.99
139.57
128.48
118.11
110.95
107.88
108.38
111.27
115.60
121.08
127.94
136.36
146.17
156.95
168.40
180.64
194.02
208.62
223.52
236.46
244.23
243.73
233.24
213.32
186.82
157.81
130.31
107.19
89.81
78.15
71.06
66.22
60.06
47.97
25.52
-9.85
-57.24
-112.01
-166.97
-214.87
-250.74
-272.96
-282.88
-283.31
-277.20
-266.92
-254.42
-241.55
-230.19
-221.82
-216.98
-215.02
-214.23
-212.52
-208.17
-200.44
-189.69
-177.26
-164.89
-154.27
-146.49
-141.69
-138.98
-136.68
-132.75
-125.53
-114.25
-99.33
-82.23
-64.89
-49.10
-36.04
-26.11
-19.09
-14.51
-11.92
-10.96
-11.34
-12.67
-14.37
-15.77
-16.24
-15.39
-13.17
-9.90
-6.12
-2.36
1.00
3.84
6.24
8.34
10.14
11.52
12.23
12.03
10.88
8.91
6.39
3.58
0.63
-2.56
-6.16
-10.32
-14.93
-19.51
-23.22
-25.15
-24.63
-21.48
-16.18
-9.66
-2.99
2.99
7.82
11.46
14.02
15.65
16.36
16.12
14.95
12.98
10.52
7.92
5.50
3.49
1.91
0.70
-0.33
-1.31
-2.28
-3.18
-3.94
-4.53
-5.07
-5.77
-6.86
-8.45
-10.41
-12.48
-14.42
-16.15
-17.84
-19.79
-22.19
-24.86
-27.20
-28.35
-27.46
-24.12
-18.53
-11.42
-3.83
3.28
9.33
14.13
17.78
20.53
22.58
24.08
25.14
25.91
26.55
27.23
28.00
28.87
29.78
30.65
31.41
31.96
32.13
31.72
30.52
28.41
25.42
21.73
17.59
13.24
8.78
4.22
-0.53
-5.55
-10.83
-16.12
-20.92
-24.50
-26.05
-24.89
-20.76
-13.96
-5.32
4.07
13.15
21.20
27.95
33.49
38.08
41.91
45.07
47.59
49.62
51.50
53.78
57.06
61.78
68.14
76.02
85.15
95.22
105.99
117.24
128.67
139.77
149.88
158.28
164.28
167.26
166.40
160.61
148.62
129.47
103.26
71.62
37.62
5.18
-21.93
-40.92
-50.33
-49.99
-40.73
-24.26
-3.01
19.82
40.64
56.13
64.08
63.93
56.77
44.75
30.20
14.85
-0.48
-15.74
-31.15
-46.79
-62.33
-77.15
-90.50
-101.79
-110.66
-116.93
-120.49
-121.33
-119.60
-115.68
-110.15
-103.55
-96.15
-87.94
-78.78
-68.74
-58.39
-48.75
-41.01
-36.08
-34.18
-34.78
-36.73
-38.61
-39.12
-37.29
-32.69
-25.47
-16.27
-6.08
4.09
13.45
21.73
29.04
35.78
42.29
48.71
54.96
60.81
65.99
70.18
73.12
74.51
74.08
71.76
67.74
62.53
56.93
51.85
47.99
45.66
44.62
44.14
43.29
41.24
37.66
32.68
26.77
20.40
13.76
6.63
-1.38
-10.46
-20.20
-29.54
-37.08
-41.48
-42.12
-39.21
-33.86
-27.60
-21.92
-17.83
-15.76
-15.63
-17.15
-20.11
-24.42
-30.10
-37.07
-44.95
-53.11
-60.70
-66.97
-71.43
-74.01
-75.00
-74.87
-74.08
-72.91
-71.42
-69.55
-67.18
-64.25
-60.90
-57.31
-53.70
-50.30
-47.27
-44.85
-43.31
-42.92
-43.75
-45.51
-47.42
-48.40
-47.45
-44.08
-38.57
-31.97
-25.69
-21.00
-18.62
-18.53
-20.17
-22.81
-25.87
-29.08
-32.44
-35.98
-39.60
-43.01
-45.85
-47.86
-48.98
-49.39
-49.33
-49.03
-48.55
-47.86
-46.88
-45.63
-44.16
-42.58
-40.90
-39.08
-37.04
-34.77
-32.38
-30.14
-28.45
-27.75
-28.32
-30.07
-32.36
-34.06
-33.84
-30.65
-24.17
-14.99
-4.40
6.11
15.31
22.56
27.74
31.03
32.58
32.42
30.53
27.03
22.28
16.83
11.29
6.13
1.66
-2.03
-4.90
-7.07
-8.65
-9.86
-10.97
-12.22
-13.74
-15.53
-17.49
-19.43
-21.22
-22.79
-24.21
-25.60
-27.12
-29.00
-31.47
-34.73
-38.71
-42.95
-46.49
-48.09
-46.53
-41.09
-31.79
-19.45
-5.37
9.08
22.77
35.01
45.51
54.20
61.09
66.24
69.81
72.08
73.50
74.68
76.23
78.75
82.76
88.64
96.63
106.77
118.81
132.18
145.89
158.64
168.92
175.35
176.94
173.28
164.63
151.82
136.09
118.77
101.08
83.85
67.44
51.75
36.46
21.28
6.18
-8.51
-22.21
-34.27
-44.27
-52.02
-57.62
-61.37
-63.60
-64.67
-64.94
-64.74
-64.39
-64.15
-64.14
-64.40
-64.76
-64.95
-64.68
-63.69
-61.90
-59.37
-56.39
-53.27
-50.31
-47.70
-45.58
-44.00
-43.00
-42.59
-42.73
-43.27
-44.03
-44.85
-45.63
-46.43
-47.45
-49.01
-51.39
-54.56
-58.05
-60.91
-61.84
-59.63
-53.61
-43.98
-31.79
-18.67
-6.28
4.11
11.85
16.89
19.55
20.32
19.66
18.00
15.70
13.13
10.58
8.26
6.26
4.52
2.92
1.37
-0.11
-1.42
-2.41
-3.08
-3.65
-4.51
-6.18
-8.95
-12.76
-17.11
-21.30
-24.69
-27.09
-28.79
-30.50
-33.04
-37.08
-42.87
-50.12
-58.04
-65.29
-70.33
-71.68
-68.51
-60.87
-49.84
-37.18
-24.74
-13.91
-5.27
1.25
6.06
9.52
11.75
12.81
12.81
12.12
11.22
10.54
10.27
10.33
10.46
10.40
10.12
9.74
9.51
9.60
9.96
10.32
10.23
9.23
7.03
3.62
-0.73
-5.45
-9.97
-13.84
-16.91
-19.42
-21.83
-24.77
-28.70
-33.76
-39.59
-45.32
-49.73
-51.57
-49.96
-44.68
-36.26
-25.86
-14.88
-4.60
4.12
10.92
15.78
18.89
20.44
20.56
19.41
17.24
14.46
11.51
8.75
6.34
4.23
2.22
0.10
-2.21
-4.67
-7.12
-9.36
-11.23
-12.64
-13.57
-14.10
-14.39
-14.69
-15.25
-16.23
-17.58
-18.93
-19.70
-19.10
-16.41
-11.05
-2.73
8.46
22.02
37.04
52.35
66.67
78.87
88.23
94.63
98.59
101.12
103.39
106.37
110.55
115.89
121.85
127.57
132.05
134.35
133.73
129.83
122.73
113.02
101.58
89.44
77.36
65.80
54.85
44.43
34.56
25.40
17.23
10.27
4.55
-0.13
-4.07
-7.63
-11.07
-14.56
-18.17
-21.89
-25.65
-29.28
-32.62
-35.55
-38.07
-40.34
-42.51
-44.55
-46.14
-46.58
-45.07
-40.98
-34.15
-25.05
-14.66
-4.20
5.28
13.13
19.20
23.66
26.81
28.88
29.95
30.08
29.38
28.05
26.39
24.63
22.90
21.20
19.48
17.74
16.12
14.77
13.82
13.25
12.85
12.29
11.25
9.57
7.25
4.50
1.61
-1.07
-3.36
-5.16
-6.61
-7.94
-9.46
-11.41
-13.88
-16.86
-20.14
-23.37
-26.06
-27.71
-27.89
-26.34
-23.11
-18.47
-12.90
-6.90
-0.94
4.64
9.53
13.46
16.22
17.68
17.85
16.96
15.39
13.63
12.16
11.31
11.23
11.84
12.93
14.30
15.81
17.50
19.48
21.89
24.73
27.88
31.13
34.30
37.29
40.13
42.92
45.77
48.75
51.93
55.36
59.13
63.27
67.73
72.33
76.78
80.88
84.60
88.24
92.28
97.19
103.19
110.04
117.12
123.53
128.35
130.69
129.77
125.03
116.21
103.56
88.01
71.00
54.10
38.61
25.14
13.62
3.47
-6.00
-15.31
-24.67
-34.09
-43.49
-52.76
-61.85
-70.82
-79.87
-89.35
-99.68
-111.12
-123.49
-136.15
-148.10
-158.28
-165.96
-170.88
-173.22
-173.45
-172.07
-169.40
-165.61
-160.67
-154.41
-146.68
-137.32
-126.34
-113.98
-100.70
-87.11
-73.92
-61.74
-51.04
-42.14
-35.18
-30.15
-26.89
-25.10
-24.35
-24.14
-23.97
-23.49
-22.51
-21.07
-19.36
-17.68
-16.19
-14.93
-13.76
-12.52
-11.15
-9.82
-8.90
-8.84
-9.92
-12.10
-15.00
-18.05
-20.72
-22.76
-24.24
-25.49
-26.93
-28.95
-31.75
-35.27
-39.10
-42.51
-44.50
-44.14
-40.85
-34.70
-26.42
-17.25
-8.41
-0.81
5.13
9.41
12.20
13.64
13.76
12.60
10.36
7.45
4.44
1.86
0.06
-0.88
-1.09
-0.82
-0.26
0.49
1.37
2.35
3.28
3.94
4.11
3.64
2.52
0.90
-1.03
-3.02
-4.90
-6.58
-8.10
-9.59
-11.26
-13.33
-15.98
-19.17
-22.62
-25.71
-27.67
-27.71
-25.39
-20.66
-14.03
-6.34
1.51
8.69
14.68
19.16
21.97
23.05
22.40
20.24
17.00
13.33
9.89
7.20
5.54
4.88
5.03
5.71
6.66
7.67
8.59
9.27
9.60
9.46
8.77
7.49
5.71
3.57
1.30
-0.86
-2.76
-4.34
-5.69
-7.02
-8.62
-10.78
-13.72
-17.44
-21.54
-25.23
-27.46
-27.24
-24.06
-18.07
-10.14
-1.50
6.63
13.37
18.34
21.51
23.02
23.08
21.84
19.55
16.61
13.54
10.85
8.95
8.00
7.93
8.46
9.29
10.14
10.84
11.28
11.41
11.15
10.37
8.99
6.96
4.41
1.63
-1.08
-3.44
-5.38
-7.09
-8.96
-11.48
-15.04
-19.69
-25.00
-30.08
-33.71
-34.69
-32.28
-26.41
-17.78
-7.63
2.69
12.06
19.84
25.82
30.05
32.62
33.56
32.94
30.93
27.91
24.50
21.33
18.92
17.50
17.06
17.39
18.25
19.39
20.58
21.67
22.47
22.77
22.30
20.90
18.61
15.64
12.31
8.91
5.68
2.73
0.00
-2.70
-5.71
-9.36
-13.84
-19.11
-24.61
-29.19
-31.38
-29.93
-24.32
-15.07
-3.27
9.48
21.42
31.13
38.02
42.15
44.00
44.09
42.78
40.96
39.21
37.55
35.75
33.90
32.50
32.15
33.13
35.18
38.50
42.77
46.94
49.79
50.96
51.02
51.06
52.26
55.52
62.93
75.90
94.02
115.00
135.35
151.25
159.28
157.40
137.53
99.15
50.71
4.20
-33.11
-60.33
-78.60
-89.23
-90.65
-81.05
-59.78
-30.28
0.44
24.79
37.81
38.20
28.77
14.71
0.82
-9.20
-14.54
-16.93
-19.14
-23.03
-28.82
-35.55
-41.92
-47.20
-50.77
-52.80
-54.18
-56.01
-58.83
-62.38
-65.91
-68.76
-70.89
-72.50
-74.12
-76.36
-79.58
-83.61
-87.79
-91.15
-92.69
-91.60
-87.18
-79.16
-67.73
-53.68
-38.12
-22.28
-7.24
6.16
17.26
25.56
30.75
32.72
31.66
28.21
23.40
18.48
14.68
12.85
13.31
15.77
19.52
23.60
27.09
29.24
29.54
27.73
23.85
18.27
11.69
5.07
-0.69
-4.93
-7.51
-8.90
-10.01
-12.07
-16.35
-24.01
-35.69
-51.31
-69.64
-88.48
-104.95
-116.31
-120.72
-117.81
-108.62
-95.21
-79.97
-65.01
-51.90
-41.56
-34.44
-30.50
-29.28
-29.84
-30.88
-31.07
-29.44
-25.72
-20.39
-14.49
-9.19
-5.35
-3.30
-2.86
-3.53
-4.83
-6.49
-8.44
-10.71
-13.25
-15.91
-18.38
-20.38
-21.72
-22.41
-22.63
-22.69
-23.00
-24.02
-26.08
-29.17
-32.75
-35.63
-36.29
-33.30
-25.88
-14.24
0.46
16.46
31.94
45.51
56.33
64.11
68.93
71.11
71.11
69.58
67.21
64.60
62.10
59.78
57.52
55.18
52.71
50.16
47.62
45.10
42.58
39.97
37.17
34.09
30.61
26.56
21.82
16.37
10.40
4.36
-1.21
-5.91
-9.69
-12.93
-16.34
-20.60
-26.03
-32.34
-38.52
-43.22
-45.17
-43.73
-39.13
-32.40
-24.95
-18.06
-12.55
-8.72
-6.56
-6.08
-7.39
-10.67
-15.85
-22.37
-29.20
-35.08
-38.83
-39.73
-37.70
-33.29
-27.36
-20.81
-14.23
-7.67
-0.76
7.01
15.95
25.85
36.05
45.73
54.22
61.22
66.80
71.07
73.91
74.94
73.72
70.08
64.35
57.31
49.91
43.01
37.22
32.95
30.58
30.54
33.30
39.11
47.75
58.35
69.38
78.84
84.77
85.73
81.42
72.84
62.03
51.30
42.20
34.81
27.73
18.73
5.75
-12.37
-35.42
-61.65
-87.66
-108.78
-119.91
-117.07
-99.17
-69.00
-32.78
1.83
28.38
43.69
48.30
45.32
38.52
30.70
23.22
16.32
9.88
3.82
-1.78
-6.89
-11.47
-15.44
-18.57
-20.49
-20.83
-19.35
-16.04
-11.12
-5.03
1.52
7.70
12.62
15.65
16.61
15.93
14.46
13.23
13.02
14.16
16.42
19.19
21.82
23.80
24.96
25.46
25.62
25.83
26.28
27.00
27.77
28.30
28.33
27.75
26.68
25.37
24.20
23.43
23.16
23.25
23.37
23.01
21.67
18.92
14.64
9.04
2.75
-3.28
-8.04
-10.67
-10.68
-7.97
-2.85
4.06
11.99
20.04
27.36
33.18
37.02
38.73
38.51
36.82
34.26
31.34
28.41
25.65
23.03
20.49
17.94
15.45
13.17
11.35
10.18
9.67
9.67
9.91
10.06
9.92
9.37
8.44
7.24
5.91
4.60
3.43
2.46
1.62
0.73
-0.46
-2.22
-4.62
-7.44
-10.16
-12.05
-12.44
-10.97
-7.74
-3.32
1.47
5.78
9.00
10.85
11.33
10.60
8.91
6.53
3.80
1.06
-1.30
-3.02
-3.94
-4.14
-3.80
-3.25
-2.85
-2.90
-3.58
-4.91
-6.72
-8.69
-10.53
-12.01
-13.14
-14.00
-14.77
-15.51
-16.14
-16.47
-16.29
-15.41
-13.78
-11.43
-8.50
-5.16
-1.63
1.87
5.21
8.38
11.60
15.19
19.49
24.66
30.52
36.56
42.09
46.41
48.95
49.43
47.82
44.37
39.55
33.95
28.21
22.89
18.37
14.84
12.31
10.66
9.73
9.33
9.28
9.36
9.34
8.99
8.19
6.95
5.37
3.67
2.06
0.74
-0.21
-0.75
-0.97
-1.00
-1.00
-1.13
-1.47
-2.08
-2.96
-4.18
-5.83
-7.94
-10.46
-13.08
-15.35
-16.74
-16.91
-15.82
-13.84
-11.52
-9.44
-7.99
-7.29
-7.21
-7.51
-7.95
-8.36
-8.57
-8.47
-7.93
-6.81
-5.05
-2.70
0.01
2.76
5.18
7.05
8.29
9.02
9.47
9.81
10.08
10.14
9.75
8.60
6.47
3.27
-0.88
-5.72
-10.81
-15.74
-20.13
-23.80
-26.68
-28.85
-30.35
-31.13
-31.02
-29.83
-27.40
-23.75
-19.08
-13.72
-8.10
-2.59
2.50
6.95
10.62
13.46
15.44
16.58
16.99
16.77
16.07
15.03
13.72
12.17
10.39
8.38
6.23
4.07
2.09
0.43
-0.80
-1.60
-2.02
-2.14
-2.04
-1.82
-1.59
-1.45
-1.50
-1.81
-2.38
-3.18
-4.18
-5.33
-6.64
-8.14
-9.83
-11.64
-13.42
-14.87
-15.62
-15.35
-13.86
-11.18
-7.57
-3.49
0.57
4.25
7.42
10.13
12.52
14.70
16.64
18.15
18.94
18.69
17.22
14.62
11.28
7.89
5.29
4.19
4.91
7.27
10.56
13.81
16.09
16.80
15.84
13.48
10.29
6.84
3.59
0.87
-1.17
-2.43
-2.89
-2.62
-1.79
-0.73
0.13
0.38
-0.22
-1.60
-3.47
-5.42
-7.13
-8.51
-9.68
-10.86
-12.14
-13.47
-14.64
-15.48
-15.95
-16.23
-16.54
-17.05
-17.70
-18.24
-18.37
-17.90
-16.88
-15.61
-14.51
-13.98
-14.28
-15.38
-17.11
-19.13
-21.15
-23.03
-24.77
-26.50
-28.42
-30.61
-33.05
-35.53
-37.68
-39.03
-39.09
-37.47
-33.97
-28.71
-22.15
-15.06
-8.28
-2.52
1.84
4.89
7.01
8.76
10.55
12.56
14.71
16.80
18.62
20.06
21.08
21.68
21.79
21.33
20.26
18.69
16.82
14.97
13.37
12.12
11.14
10.24
9.23
8.02
6.65
5.26
3.96
2.77
1.65
0.52
-0.67
-1.84
-2.86
-3.65
-4.20
-4.63
-5.05
-5.54
-6.10
-6.72
-7.36
-8.06
-8.78
-9.41
-9.70
-9.37
-8.27
-6.44
-4.20
-1.97
-0.12
1.17
1.95
2.38
2.64
2.79
2.80
2.58
2.11
1.42
0.65
-0.05
-0.55
-0.81
-0.87
-0.83
-0.79
-0.79
-0.80
-0.75
-0.63
-0.44
-0.31
-0.39
-0.77
-1.47
-2.35
-3.24
-3.95
-4.42
-4.63
-4.67
-4.61
-4.58
-4.71
-5.09
-5.77
-6.65
-7.46
-7.87
-7.56
-6.43
-4.62
-2.50
-0.45
1.26
2.57
3.54
4.28
4.80
5.06
4.99
4.61
4.07
3.61
3.43
3.61
4.07
4.62
5.08
5.42
5.71
6.09
6.65
7.33
7.97
8.39
8.45
8.13
7.47
6.60
5.66
4.85
4.32
4.22
4.51
5.05
5.62
6.10
6.50
7.08
8.22
10.27
13.42
17.62
22.66
28.22
34.01
39.85
45.68
51.57
57.60
63.74
69.66
74.77
78.32
79.68
78.64
75.55
71.25
66.76
63.03
60.56
59.40
59.27
59.83
60.88
62.42
64.67
67.87
72.16
77.54
83.89
91.12
99.18
108.05
117.69
127.85
138.02
147.48
155.44
161.13
163.89
163.17
158.57
149.80
136.91
120.42
101.41
81.45
62.32
45.67
32.55
23.22
17.11
13.19
10.37
7.97
5.85
4.18
3.07
2.18
0.73
-2.28
-7.56
-15.17
-24.52
-34.69
-44.83
-54.45
-63.40
-71.58
-78.73
-84.42
-88.21
-89.97
-90.00
-88.90
-87.37
-85.87
-84.52
-83.27
-82.11
-81.33
-81.55
-83.47
-87.56
-93.73
-101.21
-108.64
-114.54
-117.74
-117.79
-115.05
-110.51
-105.34
-100.46
-96.22
-92.36
-88.32
-83.54
-77.70
-70.82
-63.13
-54.96
-46.64
-38.47
-30.68
-23.30
-16.12
-8.82
-1.27
6.13
12.28
15.70
15.06
9.85
0.69
-10.90
-23.19
-34.82
-45.18
-54.24
-62.12
-68.74
-73.74
-76.80
-77.92
-77.59
-76.63
-75.88
-75.84
-76.55
-77.70
-78.82
-79.53
-79.58
-78.80
-76.96
-73.76
-68.91
-62.36
-54.44
-45.86
-37.53
-30.16
-24.07
-19.06
-14.64
-10.29
-5.73
-1.02
3.57
7.70
11.05
13.39
14.58
14.62
13.66
12.12
10.57
9.52
9.15
9.12
8.68
7.00
3.61
-1.31
-6.92
-12.07
-15.80
-17.74
-18.22
-18.11
-18.27
-19.24
-21.02
-23.15
-24.99
-25.99
-25.92
-24.94
-23.51
-22.27
-21.88
-22.83
-25.25
-28.87
-33.05
-36.94
-39.81
-41.31
-41.60
-41.23
-40.92
-41.22
-42.32
-43.94
-45.52
-46.37
-45.93
-43.94
-40.44
-35.72
-30.06
-23.63
-16.22
-7.34
3.62
17.05
32.82
50.19
68.00
85.09
100.41
113.04
122.03
126.26
124.73
117.01
103.65
86.27
67.15
48.43
31.53
16.93
4.42
-6.50
-16.32
-25.41
-34.23
-43.29
-53.05
-63.54
-74.22
-83.95
-91.38
-95.40
-95.52
-92.05
-85.93
-78.46
-70.83
-63.90
-58.02
-53.10
-48.85
-44.95
-41.28
-37.92
-35.07
-32.97
-31.71
-31.21
-31.20
-31.27
-31.04
-30.20
-28.65
-26.48
-23.98
-21.52
-19.43
-17.98
-17.26
-17.25
-17.82
-18.76
-19.86
-20.91
-21.83
-22.64
-23.42
-24.29
-25.31
-26.51
-27.89
-29.51
-31.52
-34.05
-37.03
-40.03
-42.25
-42.63
-40.16
-34.17
-24.46
-11.27
4.86
23.25
43.07
63.38
83.05
100.89
115.77
126.90
134.02
137.38
137.69
135.84
132.76
129.22
125.71
122.41
119.11
115.28
110.18
103.06
93.42
81.36
67.64
53.68
41.08
31.09
24.09
19.34
15.29
10.22
2.94
-6.67
-17.74
-28.84
-38.62
-46.34
-51.97
-56.03
-59.20
-61.95
-64.49
-66.68
-68.22
-68.71
-67.78
-65.16
-60.66
-54.28
-46.20
-36.78
-26.50
-15.82
-5.14
5.27
15.28
24.85
33.88
42.14
49.22
54.63
57.99
59.25
58.72
57.12
55.20
53.50
52.07
50.48
48.00
43.99
38.15
30.69
22.17
13.34
4.83
-2.90
-9.60
-15.11
-19.27
-21.97
-23.22
-23.24
-22.47
-21.52
-21.01
-21.37
-22.79
-25.22
-28.48
-32.42
-36.83
-41.47
-45.92
-49.51
-51.47
-51.12
-48.15
-42.71
-35.40
-27.02
-18.32
-9.83
-1.82
5.57
12.21
17.86
22.23
25.07
26.27
25.86
24.03
21.08
17.39
13.51
9.99
7.37
6.01
5.98
7.04
8.75
10.59
12.09
12.91
12.82
11.72
9.63
6.79
3.57
0.48
-2.02
-3.67
-4.49
-4.75
-4.84
-5.14
-5.94
-7.38
-9.42
-11.96
-14.84
-17.96
-21.34
-25.13
-29.57
-34.77
-40.48
-46.00
-50.12
-51.52
-49.20
-42.88
-33.18
-21.42
-9.18
2.24
12.04
20.02
26.32
31.21
34.85
37.35
38.81
39.41
39.42
39.06
38.44
37.54
36.31
34.73
32.99
31.40
30.40
30.35
31.47
33.65
36.50
39.31
41.30
41.78
40.37
37.08
32.28
26.51
20.25
13.88
7.56
1.42
-4.45
-9.91
-14.83
-19.17
-22.96
-26.33
-29.40
-32.32
-35.32
-38.68
-42.69
-47.40
-52.40
-56.68
-58.81
-57.35
-51.37
-40.80
-26.65
-10.61
5.33
19.43
30.59
38.42
43.16
45.37
45.66
44.50
42.28
39.32
35.99
32.75
30.00
27.96
26.57
25.53
24.41
22.93
21.05
18.96
16.96
15.20
13.56
11.69
9.08
5.33
0.32
-5.75
-12.36
-18.93
-24.95
-30.15
-34.46
-37.85
-40.26
-41.51
-41.38
-39.85
-37.21
-34.13
-31.55
-30.39
-31.28
-34.41
-39.45
-45.73
-52.26
-57.90
-61.48
-61.94
-58.56
-51.17
-40.31
-27.13
-13.14
0.16
11.66
20.79
27.53
32.20
35.21
36.89
37.41
36.89
35.50
33.64
31.85
30.73
30.67
31.60
32.99
33.95
33.68
31.84
28.74
25.25
22.40
20.89
20.81
21.65
22.55
22.78
21.97
20.16
17.62
14.57
11.07
7.04
2.51
-2.21
-6.52
-9.60
-10.75
-9.56
-6.00
-0.47
6.33
13.51
20.00
24.80
27.27
27.40
26.06
24.85
25.55
29.32
36.02
44.04
50.69
53.17
49.68
40.16
26.43
11.65
-0.69
-7.94
-9.20
-5.50
0.51
5.64
7.25
4.09
-3.34
-13.29
-23.48
-32.01
-37.73
-40.42
-40.65
-39.44
-38.12
-37.81
-39.20
-42.15
-45.65
-48.28
-48.72
-46.36
-41.55
-35.31
-28.83
-22.92
-17.86
-13.59
-9.98
-7.12
-5.17
-4.21
-4.01
-4.10
-4.03
-3.48
-2.46
-1.04
0.76
3.18
6.64
11.56
18.09
25.96
34.43
42.53
49.26
53.93
56.31
56.66
55.55
53.59
51.17
48.34
44.89
40.53
35.11
28.77
21.89
15.02
8.75
3.55
-0.24
-2.55
-3.56
-3.73
-3.63
-3.83
-4.58
-5.77
-6.93
-7.45
-6.77
-4.68
-1.34
2.74
6.81
10.17
12.24
12.70
11.43
8.36
3.46
-3.30
-11.78
-21.43
-31.33
-40.17
-46.68
-49.92
-49.59
-46.07
-40.30
-33.43
-26.56
-20.57
-16.02
-13.18
-12.11
-12.62
-14.32
-16.66
-18.98
-20.65
-21.23
-20.50
-18.52
-15.57
-11.99
-8.09
-4.05
0.01
4.02
7.78
10.99
13.20
13.99
13.10
10.52
6.47
1.33
-4.47
-10.63
-16.94
-23.31
-29.61
-35.58
-40.80
-44.85
-47.43
-48.53
-48.52
-47.98
-47.58
-47.80
-48.76
-50.12
-51.12
-50.77
-48.16
-42.80
-34.83
-25.01
-14.49
-4.42
4.39
11.66
17.53
22.30
26.20
29.31
31.54
32.84
33.25
32.92
32.04
30.83
29.48
28.24
27.34
27.05
27.48
28.55
29.97
31.37
32.35
32.72
32.41
31.47
29.98
28.02
25.67
23.12
20.62
18.39
16.59
15.14
13.84
12.38
10.46
7.86
4.37
-0.12
-5.60
-11.82
-18.17
-23.76
-27.65
-29.12
-28.01
-24.74
-20.09
-14.99
-10.17
-6.05
-2.80
-0.45
0.96
1.44
1.06
0.09
-1.08
-2.00
-2.39
-2.15
-1.43
-0.47
0.57
1.66
2.90
4.45
6.46
8.98
11.98
15.27
18.54
21.38
23.31
24.01
23.31
21.34
18.36
14.73
10.80
6.77
2.74
-1.33
-5.66
-10.45
-15.78
-21.37
-26.48
-30.00
-30.84
-28.33
-22.51
-14.16
-4.52
5.16
13.92
21.20
26.82
30.74
32.93
33.41
32.30
29.89
26.66
23.20
20.04
17.47
15.45
13.72
11.93
9.83
7.44
4.99
2.85
1.30
0.38
-0.11
-0.55
-1.30
-2.55
-4.25
-6.14
-7.91
-9.33
-10.34
-11.07
-11.68
-12.41
-13.44
-14.95
-17.09
-19.90
-23.16
-26.28
-28.37
-28.49
-26.03
-20.99
-14.08
-6.44
0.80
6.87
11.55
15.02
17.61
19.56
20.92
21.61
21.57
20.88
19.78
18.58
17.58
16.94
16.65
16.58
16.54
16.37
16.01
15.50
14.88
14.12
13.10
11.67
9.83
7.75
5.75
4.08
2.85
1.84
0.68
-1.01
-3.40
-6.47
-10.05
-14.00
-18.19
-22.43
-26.33
-29.21
-30.33
-29.07
-25.27
-19.35
-12.20
-4.91
1.62
6.87
10.74
13.36
14.98
15.75
15.76
15.12
14.02
12.73
11.50
10.42
9.38
8.18
6.66
4.85
3.00
1.48
0.56
0.33
0.62
1.06
1.25
0.89
-0.16
-1.82
-3.88
-6.04
-8.02
-9.59
-10.70
-11.50
-12.28
-13.40
-15.11
-17.37
-19.75
-21.55
-22.00
-20.54
-17.05
-11.94
-5.99
-0.04
5.26
9.58
12.88
15.26
16.82
17.60
17.72
17.31
16.61
15.79
14.86
13.67
11.98
9.71
7.10
4.62
2.81
2.01
2.14
2.77
3.35
3.46
2.97
2.03
0.87
-0.36
-1.66
-3.13
-4.78
-6.53
-8.22
-9.73
-11.14
-12.70
-14.68
-17.15
-19.85
-22.19
-23.42
-22.92
-20.46
-16.26
-10.87
-5.00
0.68
5.70
9.78
12.79
14.67
15.41
15.06
13.78
11.90
9.83
8.02
6.76
6.17
6.13
6.39
6.68
6.90
7.06
7.27
7.61
7.99
8.23
8.12
7.50
6.41
5.01
3.52
2.12
0.87
-0.29
-1.45
-2.78
-4.44
-6.59
-9.35
-12.67
-16.21
-19.32
-21.18
-21.05
-18.61
-14.10
-8.27
-2.08
3.61
8.31
11.93
14.66
16.66
17.99
18.57
18.30
17.24
15.65
13.91
12.36
11.19
10.39
9.80
9.18
8.38
7.32
5.97
4.38
2.61
0.76
-1.03
-2.65
-4.03
-5.18
-6.14
-6.96
-7.64
-8.16
-8.49
-8.72
-9.05
-9.74
-11.01
-12.77
-14.63
-15.89
-15.81
-13.87
-10.00
-4.64
1.46
7.50
12.85
17.22
20.55
22.89
24.27
24.65
24.03
22.56
20.57
18.53
16.87
15.87
15.55
15.72
16.11
16.56
17.01
17.54
18.21
18.97
19.60
19.86
19.57
18.69
17.39
15.90
14.45
13.16
12.05
11.05
10.10
9.18
8.29
7.47
6.72
6.04
5.39
4.75
4.11
3.49
2.92
2.42
2.01
1.66
1.36
1.07
0.78
0.47
0.17
-0.11
-0.32
-0.48
-0.58
-0.66
-0.73
-0.82
-0.91
-1.02
-1.11
-1.18
-1.22
-1.25
-1.27
-1.29
-1.31
-1.34
-1.37
-1.39
-1.40
-1.41
-1.40
-1.39
-1.38
-1.37
-1.37
-1.37
-1.36
-1.36
-1.35
-1.35
-1.34
-1.34
-1.33
-1.33
-1.32
-1.32
-1.31
-1.31
-1.30
-1.29
-1.29
-1.28
-1.28
-1.27
-1.27
-1.26
-1.26
-1.25
-1.25
-1.25
-1.24
-1.23
-1.23
-1.23
-1.22
-1.22
-1.21
-1.21
-1.20
-1.20
-1.19
-1.19
-1.18
-1.18
-1.17
-1.17
-1.16
-1.16
-1.15
-1.15
-1.14
-1.14
-1.14
-1.13
-1.13
-1.12
-1.12
-1.11
-1.11
-1.11
-1.10
-1.10
-1.09
-1.09
-1.08
-1.08
-1.07
-1.07
-1.07
-1.06
-1.06
-1.05
-1.05
-1.05
-1.04
-1.04
-1.03
-1.03
-1.02
-1.02
-1.02
-1.01
-1.01
-1.00
-1.00
-0.99
-0.99
-0.99
-0.98
-0.98
-0.98
-0.97
-0.97
-0.96
-0.96
-0.96
-0.95
-0.95
-0.94
-0.94
-0.94
-0.93
-0.93
-0.93
-0.92
-0.92
-0.92
-0.91
-0.91
-0.90
-0.90
-0.90
-0.89
-0.89
-0.89
-0.88
-0.88
-0.88
-0.87
-0.87
-0.87
-0.86
-0.86
-0.86
-0.85
-0.85
-0.85
-0.84
-0.84
-0.84
-0.83
-0.83
-0.83
-0.82
-0.82
-0.81
-0.81
-0.81
-0.82
-0.82
-0.82
-0.80
-0.78
-0.73
-0.68
-0.63
-0.59
-0.56
-0.54
-0.52
-0.49
-0.45
-0.39
-0.33
-0.27
-0.23
-0.20
-0.18
-0.15
-0.08
0.01
0.14
0.27
0.37
0.43
0.43
0.40
0.40
0.47
0.64
0.91
1.23
1.52
1.72
1.81
1.86
1.93
2.15
2.57
3.17
3.86
4.48
4.93
5.17
5.28
5.43
5.80
6.48
7.45
8.53
9.52
10.21
10.58
10.70
10.79
11.06
11.70
12.83
14.46
16.41
18.31
19.52
19.33
17.18
12.84
6.64
-0.69
-8.24
-15.23
-21.23
-26.20
-30.29
-33.68
-36.46
-38.63
-40.21
-41.42
-42.66
-44.45
-47.17
-50.88
-55.18
-59.21
-61.87
-62.20
-59.64
-54.29
-46.82
-38.24
-29.55
-21.51
-14.48
-8.55
-3.70
0.04
2.52
3.65
3.53
2.53
1.26
0.36
0.27
1.08
2.56
4.29
5.86
7.07
7.92
8.64
9.50
10.70
12.24
13.90
15.21
15.74
15.25
13.92
12.34
11.35
11.67
13.56
16.66
20.19
23.31
25.54
27.04
28.64
31.59
37.24
46.72
60.65
78.74
99.46
119.85
135.91
143.56
140.06
125.15
101.27
72.76
44.21
18.92
-1.93
-18.91
-33.28
-45.83
-56.38
-64.01
-67.86
-67.71
-64.19
-58.43
-51.49
-43.91
-35.70
-26.51
-16.13
-4.74
6.97
18.03
27.43
34.43
38.71
40.31
39.54
36.77
32.22
25.91
17.71
7.58
-4.14
-16.44
-27.58
-35.41
-37.94
-34.03
-23.81
-8.71
9.05
27.10
43.62
57.71
69.33
79.07
87.87
96.62
105.79
114.91
122.21
124.61
118.46
100.84
70.88
30.63
-15.17
-60.34
-99.04
-127.36
-144.04
-150.24
-148.57
-142.06
-133.40
-124.60
-116.92
-110.75
-105.52
-99.76
-91.40
-78.51
-60.19
-37.23
-12.10
11.71
30.84
43.10
48.00
46.48
40.25
31.12
20.68
10.30
1.29
-5.10
-8.01
-7.29
-3.69
1.37
6.34
10.11
12.35
13.44
14.13
15.01
16.29
17.69
18.78
19.17
18.76
17.80
16.77
16.25
16.69
18.31
21.00
24.41
28.09
31.66
34.95
37.93
40.48
42.19
42.27
39.77
34.04
25.13
13.96
2.08
-8.79
-17.35
-22.99
-25.88
-26.76
-26.59
-26.33
-26.70
-28.06
-30.28
-32.72
-34.27
-33.65
-29.90
-22.80
-13.13
-2.50
7.20
14.44
18.49
19.57
18.38
15.66
11.70
6.29
-0.98
-10.32
-21.43
-33.37
-44.89
-54.73
-61.92
-65.91
-66.53
-63.93
-58.50
-50.89
-41.93
-32.61
-23.83
-16.31
-10.44
-6.32
-3.88
-2.93
-3.32
-4.78
-6.98
-9.42
-11.54
-12.97
-13.57
-13.52
-13.23
-13.14
-13.59
-14.76
-16.60
-18.87
-21.11
-22.72
-23.03
-21.49
-17.86
-12.26
-5.20
2.58
10.25
17.12
22.63
26.41
28.33
28.44
27.00
24.44
21.26
17.94
14.92
12.49
10.85
9.98
9.71
9.70
9.61
9.21
8.51
7.69
7.01
6.54
6.19
5.65
4.61
2.90
0.54
-2.28
-5.29
-8.26
-11.06
-13.65
-16.07
-18.42
-20.87
-23.64
-26.98
-31.05
-35.81
-40.88
-45.53
-48.73
-49.48
-47.14
-41.68
-33.76
-24.56
-15.35
-7.15
-0.46
4.65
8.37
10.94
12.49
13.06
12.77
11.85
10.62
9.50
8.76
8.55
8.83
9.41
10.05
10.50
10.61
10.36
9.91
9.46
9.20
9.13
9.06
8.66
7.61
5.76
3.16
0.05
-3.21
-6.31
-9.02
-11.28
-13.13
-14.79
-16.55
-18.78
-21.77
-25.61
-30.04
-34.43
-37.86
-39.36
-38.22
-34.27
-27.96
-20.20
-12.05
-4.42
2.17
7.57
11.84
15.07
17.26
18.32
18.23
17.10
15.20
12.98
10.89
9.32
8.49
8.46
9.04
9.96
10.88
11.58
11.98
12.11
12.07
11.88
11.47
10.74
9.56
7.88
5.76
3.24
0.42
-2.60
-5.69
-8.62
-11.22
-13.35
-15.15
-16.92
-19.12
-22.13
-26.03
-30.52
-34.92
-38.30
-39.72
-38.56
-34.65
-28.35
-20.44
-11.90
-3.62
3.75
9.89
14.74
18.36
20.87
22.33
22.79
22.36
21.21
19.66
18.09
16.92
16.46
16.79
17.75
18.95
20.01
20.70
21.08
21.43
22.07
23.10
24.39
25.53
26.13
25.95
25.10
23.90
22.85
22.30
22.41
23.04
23.85
24.47
24.60
24.09
23.01
21.64
20.43
19.98
21.05
24.43
30.73
39.99
51.50
63.68
74.55
82.27
85.66
84.54
79.45
71.34
61.10
49.48
37.14
24.86
13.57
4.17
-2.77
-7.32
-10.07
-11.92
-13.57
-15.32
-16.99
-18.10
-18.29
-17.54
-16.24
-15.04
-14.64
-15.46
-17.50
-20.35
-23.29
-25.49
-26.30
-25.34
-22.72
-19.01
-15.00
-11.46
-8.87
-7.20
-5.94
-4.27
-1.29
3.82
11.45
21.40
32.68
43.52
51.87
55.99
55.14
49.91
42.00
33.55
26.34
21.32
18.59
17.82
18.74
21.44
26.23
33.11
41.41
49.57
55.44
57.02
53.23
44.35
31.85
17.73
3.57
-9.91
-22.91
-36.05
-49.84
-64.31
-79.07
-93.58
-107.22
-119.41
-129.70
-138.01
-144.96
-151.90
-160.46
-171.80
-185.82
-201.08
-215.46
-227.16
-235.30
-239.79
-240.64
-237.16
-227.87
-211.17
-186.18
-153.33
-114.23
-71.18
-26.66
16.67
55.84
87.67
109.35
119.50
118.81
110.07
97.16
83.68
71.85
62.30
54.63
48.21
42.80
38.54
35.58
33.72
32.27
30.38
27.41
23.23
18.28
13.24
8.71
4.86
1.36
-2.35
-6.83
-12.26
-18.44
-24.89
-31.19
-37.10
-42.52
-47.22
-50.64
-51.83
-49.77
-43.87
-34.31
-22.07
-8.66
4.32
15.65
24.66
31.11
35.08
36.73
36.38
34.45
31.56
28.37
25.50
23.33
21.94
21.22
20.97
21.01
21.27
21.69
22.21
22.66
22.81
22.36
21.07
18.79
15.50
11.28
6.37
1.09
-4.13
-8.88
-12.96
-16.42
-19.68
-23.36
-28.04
-33.93
-40.59
-46.87
-51.17
-51.89
-47.98
-39.31
-26.75
-11.91
3.38
17.55
29.56
38.88
45.41
49.28
50.78
50.34
48.58
46.25
44.10
42.69
42.27
42.72
43.69
44.74
45.54
45.99
46.13
46.09
45.92
45.54
44.68
43.05
40.37
36.60
31.88
26.57
21.12
15.91
11.17
6.88
2.81
-1.48
-6.47
-12.57
-19.88
-28.01
-36.03
-42.59
-46.22
-45.87
-41.29
-33.13
-22.80
-11.94
-1.90
6.55
13.24
18.38
22.26
25.03
26.69
27.26
26.93
26.05
25.14
24.63
24.77
25.47
26.46
27.41
28.10
28.55
28.89
29.29
29.73
30.03
29.90
29.08
27.52
25.33
22.81
20.26
17.97
16.05
14.45
12.93
11.13
8.68
5.25
0.71
-4.86
-11.07
-17.20
-22.28
-25.20
-25.06
-21.47
-14.78
-6.02
3.47
12.49
20.37
27.00
32.57
37.18
40.63
42.45
42.24
39.96
36.11
31.54
27.18
23.65
21.13
19.44
18.23
17.29
16.59
16.29
16.53
17.22
17.96
18.19
17.38
15.26
11.98
8.03
4.00
0.36
-2.68
-5.27
-7.67
-10.22
-13.14
-16.49
-20.13
-23.68
-26.64
-28.35
-28.24
-25.96
-21.55
-15.46
-8.44
-1.30
5.23
10.70
14.88
17.73
19.34
19.82
19.39
18.31
16.85
15.30
13.94
12.98
12.55
12.71
13.35
14.25
15.14
15.75
15.94
15.76
15.38
15.01
14.80
14.73
14.62
14.20
13.23
11.57
9.26
6.49
3.53
0.60
-2.15
-4.70
-7.11
-9.50
-12.01
-14.77
-17.59
-20.14
-21.92
-22.38
-21.00
-17.52
-12.07
-5.27
1.98
8.94
15.08
20.10
23.83
26.25
27.45
27.59
26.96
25.90
25.18
25.29
26.23
27.52
28.54
28.86
28.40
27.39
26.44
27.41
31.80
39.92
50.85
62.94
74.48
84.18
91.35
96.06
101.37
109.84
122.13
136.78
151.45
164.27
174.17
180.80
184.27
188.59
196.72
208.87
223.02
236.99
250.08
262.75
275.40
287.66
302.95
322.61
344.28
363.00
374.14
375.52
367.38
351.31
300.28
204.44
75.43
-59.14
-173.65
-257.02
-311.00
-342.97
-360.65
-369.86
-370.62
-362.44
-347.30
-329.31
-312.21
-297.35
-284.15
-271.78
-260.36
-247.68
-230.06
-208.43
-185.87
-165.05
-146.82
-130.86
-116.91
-105.34
-94.51
-83.09
-71.16
-59.40
-48.38
-38.10
-28.31
-19.04
-10.60
-2.23
6.76
16.12
25.09
32.77
38.42
41.51
41.73
38.99
33.95
27.50
20.25
12.72
5.29
-1.85
-8.88
-16.34
-24.94
-35.07
-46.46
-58.33
-69.55
-79.19
-86.97
-93.34
-99.08
-104.83
-110.73
-116.46
-121.78
-126.81
-132.25
-139.05
-147.89
-158.48
-169.44
-178.42
-182.81
-180.47
-170.30
-152.42
-128.06
-99.16
-67.92
-36.65
-7.48
17.67
37.36
50.82
58.11
60.09
58.14
53.76
48.25
42.58
37.45
33.40
30.92
30.41
32.09
35.85
41.26
47.69
54.48
61.13
67.44
73.55
79.90
87.06
95.54
105.53
116.63
127.82
137.51
143.84
145.11
140.32
129.51
113.99
96.05
78.37
63.27
52.14
45.21
41.70
40.38
40.06
40.05
40.14
40.53
41.53
43.38
45.97
48.75
50.79
50.98
48.44
42.94
35.05
26.04
17.30
9.77
3.58
-1.90
-7.58
-14.11
-21.54
-29.29
-36.46
-42.22
-46.06
-47.89
-48.06
-47.24
-46.34
-46.33
-47.92
-51.21
-55.60
-59.76
-62.08
-61.22
-56.61
-48.73
-38.95
-29.04
-20.62
-14.69
-11.68
-11.74
-15.14
-22.38
-34.00
-50.06
-69.78
-91.32
-112.06
-129.09
-139.81
-142.43
-136.43
-122.77
-103.88
-83.22
-64.36
-49.88
-40.60
-35.45
-32.39
-29.62
-26.46
-23.59
-22.29
-23.43
-26.86
-31.33
-35.16
-37.03
-36.50
-34.03
-30.52
-26.76
-23.07
-19.22
-14.77
-9.43
-3.44
2.35
6.62
8.14
6.21
1.08
-6.07
-13.42
-19.08
-21.71
-20.81
-16.79
-10.70
-3.81
2.77
8.28
12.33
14.73
15.40
14.37
11.92
8.75
5.79
4.06
4.13
5.85
8.38
10.56
11.42
10.54
8.09
4.57
0.61
-3.19
-6.34
-8.25
-8.44
-6.58
-2.75
2.56
8.50
14.22
19.05
22.60
24.83
25.82
25.76
24.75
22.87
20.10
16.42
11.88
6.67
1.15
-4.27
-9.20
-13.43
-16.92
-19.86
-22.47
-25.01
-27.65
-30.42
-33.26
-35.92
-38.07
-39.28
-39.18
-37.48
-34.12
-29.34
-23.63
-17.68
-12.16
-7.45
-3.60
-0.16
3.54
8.13
13.92
20.68
27.71
34.01
38.65
40.93
40.60
37.95
33.76
29.25
25.85
24.76
26.61
31.01
36.58
41.23
42.92
40.38
33.54
23.65
12.75
2.92
-4.34
-8.59
-10.47
-11.36
-12.86
-16.26
-22.14
-30.27
-39.85
-49.82
-59.19
-67.17
-73.10
-76.44
-76.68
-73.55
-67.19
-58.37
-48.33
-38.43
-29.74
-22.66
-17.00
-12.20
-7.73
-3.36
0.82
4.56
7.74
10.45
13.05
16.00
19.65
24.15
29.30
34.69
39.72
43.68
45.95
46.14
44.26
40.76
36.43
32.18
28.70
26.35
24.98
24.06
22.76
20.11
15.25
7.72
-2.25
-13.65
-24.73
-33.50
-38.19
-37.72
-31.92
-21.57
-8.24
5.87
18.32
26.94
30.33
28.37
22.19
13.74
5.07
-2.39
-8.06
-12.05
-14.68
-16.12
-16.21
-14.60
-11.09
-5.74
0.99
8.43
15.78
22.39
27.78
31.78
34.39
35.65
35.48
33.76
30.33
25.31
19.14
12.57
6.53
1.90
-0.66
-0.83
1.31
5.18
9.83
14.06
16.71
17.12
15.29
12.00
8.43
5.80
4.90
5.84
8.14
10.88
13.12
14.14
13.70
12.04
9.68
7.27
5.34
4.23
4.12
5.10
7.19
10.35
14.29
18.47
22.07
24.26
24.55
23.04
20.39
17.48
15.07
13.47
12.48
11.59
10.33
8.64
7.00
6.17
6.82
9.26
13.28
18.27
23.36
27.66
30.47
31.54
30.89
28.73
25.49
21.75
18.10
15.07
12.86
11.46
11.04
11.50
12.39
13.23
13.56
13.09
11.72
9.18
5.35
0.94
-3.40
-7.42
-10.74
-12.78
-12.94
-10.69
-6.42
-0.84
6.11
14.00
21.52
27.60
31.69
34.05
35.58
36.66
37.30
37.96
38.20
36.52
31.98
24.35
14.18
7.45
9.33
12.76
12.49
9.78
5.40
0.65
-3.59
-7.13
-10.92
-16.72
-25.72
-38.38
-53.78
-70.14
-84.88
-96.40
-104.49
-111.06
-118.72
-129.37
-144.98
-165.39
-188.35
-209.87
-226.33
-235.16
-236.27
-230.53
-203.73
-151.92
-83.95
-15.92
40.23
77.38
101.25
116.20
124.77
128.49
125.88
116.61
102.52
87.06
73.22
62.83
55.14
48.99
43.54
36.87
28.60
20.09
13.45
9.99
10.05
12.39
16.01
20.54
24.79
28.30
31.43
34.91
39.15
44.19
49.19
53.47
56.66
58.15
57.92
56.65
55.35
54.75
55.06
55.65
55.73
54.64
51.95
47.86
43.10
38.67
35.31
33.25
32.09
31.11
29.62
27.13
23.45
18.71
13.17
7.17
1.02
-4.94
-10.39
-15.00
-18.53
-20.85
-22.10
-22.56
-22.70
-22.90
-23.38
-24.12
-24.82
-25.16
-24.98
-24.37
-23.66
-23.24
-23.33
-23.87
-24.62
-25.27
-25.63
-25.69
-25.60
-25.57
-25.84
-26.56
-27.72
-29.09
-30.13
-30.10
-28.29
-24.29
-18.23
-10.77
-2.90
4.41
10.43
14.86
17.75
19.28
19.72
19.29
18.24
16.80
15.24
13.76
12.48
11.48
10.70
10.12
9.67
9.28
8.87
8.40
7.88
7.35
6.82
6.26
5.53
4.50
3.08
1.36
-0.45
-2.12
-3.55
-4.79
-6.10
-7.73
-9.88
-12.62
-15.80
-19.09
-22.01
-23.98
-24.40
-22.89
-19.39
-14.27
-8.29
-2.30
2.95
7.03
9.86
11.59
12.42
12.50
11.87
10.59
8.83
6.90
5.14
3.86
3.13
2.78
2.50
2.04
1.31
0.43
-0.36
-0.89
-1.16
-1.36
-1.82
-2.85
-4.58
-6.93
-9.64
-12.33
-14.69
-16.58
-18.09
-19.51
-21.17
-23.33
-26.00
-28.95
-31.65
-33.49
-33.84
-32.24
-28.51
-22.82
-15.67
-7.83
-0.14
6.64
11.97
15.63
17.61
18.12
17.47
16.06
14.30
12.59
11.16
10.10
9.35
8.77
8.21
7.67
7.26
7.21
7.63
8.38
9.10
9.28
8.51
6.70
4.16
1.46
-0.87
-2.57
-3.80
-5.00
-6.65
-9.07
-12.29
-16.17
-20.49
-24.91
-28.95
-31.92
-33.02
-31.65
-27.67
-21.61
-14.46
-7.25
-0.68
5.07
10.17
14.82
18.91
21.98
23.48
23.09
20.98
17.78
14.30
11.25
8.96
7.33
6.05
4.78
3.32
1.73
0.18
-1.12
-2.14
-3.03
-4.14
-5.72
-7.89
-10.48
-13.17
-15.59
-17.59
-19.29
-21.00
-23.07
-25.71
-28.94
-32.55
-36.19
-39.35
-41.38
-41.58
-39.35
-34.40
-26.91
-17.56
-7.33
2.77
11.92
19.72
26.11
31.36
35.87
40.03
44.05
47.89
51.33
54.03
55.75
56.44
56.17
55.08
53.26
50.75
47.67
44.27
40.91
37.96
35.55
33.54
31.61
29.44
26.87
23.96
20.88
17.73
14.47
10.91
6.86
2.17
-3.20
-9.20
-15.57
-21.79
-27.13
-30.68
-31.71
-29.92
-25.64
-19.67
-13.00
-6.45
-0.45
4.87
9.46
13.12
15.51
16.32
15.57
13.81
12.00
11.17
11.99
14.53
18.13
21.75
24.30
25.04
23.75
20.70
16.38
11.28
5.78
0.10
-5.58
-11.08
-16.23
-20.98
-25.54
-30.32
-35.88
-42.74
-51.27
-61.58
-73.47
-86.23
-98.69
-109.25
-116.24
-118.39
-115.24
-107.33
-95.98
-82.73
-68.80
-54.75
-40.48
-25.53
-9.54
7.46
24.87
41.69
56.66
68.49
76.25
79.56
78.83
75.26
70.56
66.50
64.42
64.84
67.39
71.00
74.29
75.93
74.95
70.88
63.79
54.21
43.11
31.64
20.99
12.08
5.39
0.78
-2.42
-5.16
-8.29
-12.14
-16.26
-19.49
-20.31
-17.28
-9.72
2.08
16.84
32.52
46.81
57.61
63.44
63.76
59.10
50.95
41.42
32.67
26.30
23.06
22.76
24.51
27.09
29.23
29.82
28.06
23.57
16.47
7.34
-2.96
-13.49
-23.40
-32.03
-38.89
-43.62
-46.00
-46.15
-44.63
-42.37
-40.34
-39.26
-39.17
-39.53
-39.47
-38.23
-35.49
-31.48
-26.83
-22.25
-18.30
-15.26
-13.22
-12.23
-12.28
-13.35
-15.20
-17.44
-19.53
-20.91
-21.10
-19.73
-16.55
-11.51
-4.93
2.45
9.56
15.27
18.90
20.51
20.84
20.89
21.39
22.42
23.46
23.72
22.54
19.59
14.83
8.32
0.27
-8.91
-18.35
-26.74
-32.63
-34.90
-33.27
-28.46
-21.99
-15.58
-10.59
-7.75
-7.15
-8.59
-11.81
-16.53
-22.28
-28.33
-33.67
-37.35
-38.72
-37.50
-33.76
-27.79
-20.16
-11.91
-4.67
-0.28
0.06
-3.21
-7.94
-11.04
-10.14
-4.98
2.36
8.50
10.59
7.60
0.52
-8.54
-17.64
-25.61
-31.88
-35.77
-36.20
-32.05
-23.16
-10.94
1.79
11.97
17.58
18.48
16.24
13.13
11.02
10.65
11.80
13.73
15.85
17.90
19.76
21.20
21.77
20.99
18.69
15.29
11.70
8.99
7.91
8.53
10.23
11.96
12.68
11.75
9.08
5.07
0.31
-4.70
-9.70
-14.61
-19.38
-23.69
-27.09
-29.03
-29.10
-27.21
-23.43
-17.92
-10.80
-2.35
6.85
15.75
23.01
27.33
27.96
25.03
19.50
12.91
6.93
2.96
1.89
3.97
8.78
15.27
21.90
27.03
29.26
27.97
23.47
16.89
9.71
3.22
-1.79
-5.10
-6.87
-7.39
-7.02
-6.27
-5.85
-6.62
-9.13
-13.31
-18.22
-22.32
-24.10
-22.73
-18.40
-12.18
-5.51
0.44
5.11
8.53
11.08
13.08
14.64
15.63
15.93
15.57
14.86
14.26
14.22
14.93
16.31
17.97
19.47
20.44
20.74
20.50
20.03
19.65
19.64
20.10
20.95
21.93
22.64
22.62
21.44
18.83
14.78
9.51
3.51
-2.61
-8.18
-12.58
-15.23
-15.68
-13.68
-9.26
-2.86
4.68
12.33
19.08
24.23
27.51
29.03
29.09
27.98
25.95
23.25
20.23
17.33
14.95
13.26
12.08
10.95
9.41
7.23
4.53
1.77
-0.58
-2.23
-3.26
-4.02
-4.93
-6.33
-8.35
-10.87
-13.68
-16.53
-19.22
-21.70
-24.04
-26.36
-28.76
-31.16
-33.24
-34.48
-34.32
-32.36
-28.55
-23.20
-16.96
-10.55
-4.59
0.59
4.91
8.49
11.55
14.27
16.76
19.03
21.00
22.56
23.57
23.91
23.47
22.20
20.19
17.68
15.13
13.05
11.90
11.87
12.76
14.03
15.03
15.22
14.43
12.84
10.92
9.13
7.73
6.65
5.56
3.94
1.38
-2.31
-6.98
-12.07
-16.79
-20.25
-21.67
-20.66
-17.31
-12.15
-6.00
0.23
5.80
10.28
13.52
15.55
16.56
16.68
16.01
14.63
12.65
10.31
7.92
5.84
4.34
3.42
2.86
2.24
1.18
-0.47
-2.57
-4.73
-6.49
-7.62
-8.17
-8.46
-8.88
-9.71
-11.02
-12.66
-14.40
-16.09
-17.64
-19.06
-20.39
-21.70
-23.07
-24.58
-26.32
-28.20
-29.88
-30.83
-30.44
-28.30
-24.37
-19.05
-13.01
-7.00
-1.55
3.06
6.77
9.62
11.59
12.66
12.87
12.39
11.52
10.63
9.95
9.54
9.22
8.75
7.99
6.99
5.97
5.19
4.78
4.59
4.31
3.58
2.17
0.07
-2.48
-5.17
-7.72
-9.99
-11.98
-13.73
-15.33
-16.81
-18.29
-19.91
-21.85
-24.19
-26.78
-29.14
-30.60
-30.48
-28.40
-24.45
-19.14
-13.23
-7.42
-2.15
2.43
6.33
9.53
11.91
13.26
13.45
12.57
10.96
9.10
7.42
6.21
5.51
5.19
4.99
4.71
4.27
3.70
3.13
2.67
2.33
2.01
1.56
0.82
-0.20
-1.42
-2.66
-3.80
-4.80
-5.72
-6.71
-7.89
-9.36
-11.19
-13.38
-15.83
-18.14
-19.71
-19.83
-17.99
-14.07
-8.48
-1.97
4.56
10.45
15.29
19.04
21.76
23.58
24.56
24.72
24.09
22.79
21.04
19.06
17.12
15.39
13.93
12.75
11.79
11.03
10.47
10.13
9.93
9.71
9.24
8.34
6.98
5.27
3.39
1.57
-0.04
-1.35
-2.30
-2.96
-3.44
-4.00
-4.92
-6.42
-8.60
-11.31
-14.16
-16.63
-18.12
-18.16
-16.43
-12.96
-8.05
-2.30
3.55
8.81
13.05
16.17
18.31
19.70
20.50
20.80
20.65
20.13
19.40
18.67
18.06
17.56
17.02
16.20
14.87
12.98
10.66
8.25
6.11
4.54
3.62
3.17
2.87
2.35
1.34
-0.18
-2.07
-4.01
-5.70
-6.89
-7.55
-7.86
-8.21
-9.04
-10.68
-13.22
-16.34
-19.42
-21.67
-22.40
-21.23
-18.15
-13.54
-8.01
-2.29
2.99
7.31
10.44
12.31
13.05
12.83
11.83
10.25
8.35
6.45
4.93
4.11
4.05
4.58
5.28
5.75
5.73
5.27
4.63
4.10
3.88
3.86
3.80
3.40
2.54
1.30
-0.10
-1.39
-2.46
-3.33
-4.12
-4.96
-5.98
-7.22
-8.74
-10.62
-12.89
-15.41
-17.75
-19.22
-19.03
-16.69
-12.26
-6.44
-0.37
4.76
8.17
9.70
9.73
8.90
7.76
6.55
5.30
3.92
2.45
1.10
0.18
-0.10
0.22
0.88
1.51
1.83
1.80
1.65
1.67
2.09
2.85
3.56
3.70
2.79
0.66
-2.40
-5.79
-8.78
-10.83
-11.83
-12.09
-12.15
-12.56
-13.64
-15.44
-17.74
-20.19
-22.40
-23.95
-24.47
-23.68
-21.55
-18.32
-14.45
-10.51
-6.94
-3.98
-1.66
0.09
1.30
1.94
1.95
1.35
0.30
-0.94
-2.02
-2.63
-2.47
-1.41
0.55
3.22
6.22
9.04
11.22
12.43
12.60
11.82
10.33
8.34
5.94
3.10
-0.25
-4.21
-8.77
-13.85
-19.28
-24.83
-30.26
-35.22
-39.31
-42.00
-42.77
-41.14
-36.89
-30.04
-20.94
-10.25
1.14
12.22
22.05
30.00
35.94
40.19
43.43
46.36
49.42
52.71
55.98
58.72
60.33
60.28
58.17
54.02
48.35
42.26
37.12
34.06
33.43
34.56
35.95
35.84
33.00
27.19
19.14
10.24
1.85
-5.09
-10.35
-14.26
-17.38
-20.25
-23.12
-25.98
-28.54
-30.40
-31.11
-30.30
-27.78
-23.67
-18.33
-12.37
-6.48
-1.26
2.92
5.91
7.74
8.55
8.49
7.76
6.61
5.31
4.07
2.96
1.87
0.65
-0.82
-2.49
-4.12
-5.41
-6.22
-6.65
-7.05
-7.90
-9.56
-12.15
-15.51
-19.23
-22.85
-26.05
-28.69
-30.89
-32.88
-34.96
-37.37
-40.13
-43.09
-45.88
-47.99
-48.87
-48.11
-45.54
-41.34
-36.01
-30.23
-24.67
-19.81
-15.85
-12.76
-10.44
-8.79
-7.75
-7.34
-7.52
-8.14
-8.97
-9.70
-10.07
-9.93
-9.26
-8.16
-6.80
-5.40
-4.16
-3.26
-2.83
-2.88
-3.36
-4.11
-4.96
-5.80
-6.61
-7.49
-8.57
-9.94
-11.63
-13.61
-15.78
-18.04
-20.19
-21.90
-22.71
-22.11
-19.70
-15.46
-9.88
-3.80
1.82
6.25
9.17
10.68
11.16
10.95
10.30
9.29
7.95
6.42
4.91
3.67
2.85
2.48
2.48
2.75
3.26
4.01
4.96
5.92
6.59
6.64
5.86
4.25
2.03
-0.41
-2.70
-4.63
-6.14
-7.44
-8.84
-10.69
-13.21
-16.33
-19.61
-22.26
-23.39
-22.27
-18.69
-13.00
-6.05
1.11
7.57
12.77
16.57
19.03
20.24
20.28
19.19
17.15
14.48
11.64
9.10
7.20
6.12
5.90
6.44
7.57
8.96
10.15
10.70
10.31
9.00
7.08
5.02
3.22
1.86
0.84
-0.08
-1.11
-2.46
-4.26
-6.66
-9.74
-13.48
-17.52
-21.16
-23.53
-23.83
-21.66
-17.17
-11.04
-4.24
2.29
7.91
12.36
15.66
17.94
19.27
19.62
18.99
17.51
15.49
13.34
11.45
10.02
9.10
8.61
8.40
8.40
8.56
8.82
9.08
9.19
8.96
8.25
6.96
5.16
2.98
0.67
-1.54
-3.47
-5.14
-6.71
-8.51
-10.79
-13.62
-16.75
-19.66
-21.63
-21.98
-20.23
-16.27
-10.38
-3.22
4.32
11.31
16.95
20.74
22.58
22.65
21.36
19.20
16.66
14.11
11.84
10.02
8.76
8.08
7.96
8.35
9.13
10.10
10.95
11.33
10.99
9.82
8.00
5.81
3.57
1.51
-0.31
-1.92
-3.40
-4.86
-6.45
-8.37
-10.86
-13.97
-17.40
-20.44
-22.16
-21.67
-18.56
-13.13
-6.24
0.97
7.47
12.71
16.59
19.30
21.07
21.99
22.04
21.18
19.52
17.36
15.07
12.95
11.22
9.97
9.30
9.28
9.95
11.20
12.69
13.89
14.31
13.66
11.99
9.64
7.05
4.62
2.50
0.63
-1.14
-2.98
-4.97
-7.18
-9.68
-12.54
-15.68
-18.76
-21.10
-21.84
-20.30
-16.27
-10.23
-3.17
3.70
9.50
13.82
16.71
18.45
19.21
19.00
17.81
15.75
13.24
10.88
9.20
8.45
8.53
9.10
9.77
10.30
10.62
10.74
10.70
10.47
9.96
9.13
7.92
6.37
4.55
2.56
0.56
-1.31
-2.94
-4.39
-5.84
-7.56
-9.83
-12.70
-15.90
-18.85
-20.78
-21.02
-19.13
-15.13
-9.49
-3.00
3.48
9.20
13.63
16.56
17.99
18.08
17.03
15.14
12.70
10.11
7.73
5.88
4.71
4.20
4.17
4.39
4.72
5.08
5.49
5.94
6.33
6.43
6.03
5.00
3.43
1.56
-0.30
-1.90
-3.17
-4.20
-5.19
-6.40
-8.04
-10.23
-12.92
-15.81
-18.37
-19.97
-19.98
-18.08
-14.31
-9.14
-3.27
2.56
7.76
11.96
15.00
16.85
17.55
17.19
15.92
13.97
11.67
9.39
7.50
6.25
5.74
5.82
6.21
6.57
6.69
6.54
6.21
5.85
5.53
5.20
4.70
3.86
2.64
1.10
-0.60
-2.26
-3.77
-5.11
-6.32
-7.55
-8.97
-10.72
-12.84
-15.12
-17.13
-18.28
-18.00
-16.01
-12.37
-7.60
-2.38
2.59
6.85
10.21
12.62
14.08
14.56
14.00
12.47
10.26
7.81
5.63
4.07
3.26
3.11
3.36
3.71
3.95
3.94
3.62
2.98
2.03
0.80
-0.67
-2.31
-4.03
-5.74
-7.38
-8.91
-10.38
-11.88
-13.52
-15.41
-17.62
-20.20
-23.11
-26.23
-29.25
-31.72
-33.11
-32.99
-31.17
-27.83
-23.46
-18.72
-14.28
-10.66
-8.20
-7.08
-7.31
-8.80
-11.27
-14.33
-17.50
-20.41
-22.99
-25.43
-28.18
-31.64
-35.88
-40.47
-44.56
-47.22
-47.90
-46.72
-44.58
-42.73
-42.34
-43.97
-47.40
-51.73
-55.66
-57.87
-57.22
-53.04
-45.29
-34.70
-22.75
-11.13
-0.97
7.83
16.70
27.78
42.67
61.40
82.03
101.39
116.45
125.56
129.00
128.46
125.97
122.95
119.77
116.08
111.38
105.46
98.39
90.38
81.64
72.36
62.88
53.62
44.92
36.84
29.08
21.26
13.20
5.13
-2.45
-9.15
-14.94
-20.13
-25.14
-30.19
-35.20
-39.84
-43.68
-46.34
-47.45
-46.67
-43.71
-38.46
-31.06
-21.77
-10.90
1.11
13.58
25.42
35.31
42.10
45.20
44.71
41.26
35.58
28.33
20.22
12.18
5.51
1.51
0.85
3.08
6.58
9.21
9.29
6.25
0.64
-6.33
-13.47
-20.00
-25.49
-29.52
-31.45
-30.40
-25.56
-16.60
-3.95
11.19
27.04
41.51
52.50
58.30
57.88
51.17
39.15
23.56
6.44
-10.23
-24.74
-35.53
-41.22
-40.85
-34.50
-23.69
-11.40
-1.15
4.21
3.59
-2.11
-10.66
-19.65
-27.29
-32.63
-35.20
-34.48
-29.80
-20.51
-6.56
11.23
31.15
50.88
68.00
80.41
86.77
86.78
81.16
71.47
59.57
47.06
34.97
23.77
13.58
4.46
-3.62
-10.88
-17.90
-25.47
-34.21
-44.11
-54.34
-63.52
-70.21
-73.62
-73.82
-71.61
-68.07
-63.96
-59.38
-53.83
-46.52
-36.85
-24.79
-11.04
3.02
15.65
25.09
30.04
29.88
24.88
16.11
5.27
-5.57
-14.34
-19.33
-19.56
-15.09
-7.22
1.71
8.85
11.75
9.14
1.43
-9.51
-21.10
-31.00
-37.87
-41.51
-42.60
-42.05
-40.56
-38.52
-36.12
-33.64
-31.45
-29.95
-29.26
-29.09
-28.76
-27.50
-24.80
-20.64
-15.62
-10.69
-6.87
-4.82
-4.68
-6.08
-8.38
-10.93
-13.32
-15.42
-17.30
-19.06
-20.77
-22.35
-23.74
-24.87
-25.73
-26.39
-26.87
-27.19
-27.31
-27.17
-26.70
-25.81
-24.42
-22.40
-19.64
-16.06
-11.63
-6.42
-0.67
5.28
10.96
15.81
19.36
21.33
21.76
21.04
19.80
18.79
18.65
19.70
21.94
25.02
28.34
31.31
33.44
34.52
34.58
33.80
32.38
30.48
28.23
25.68
22.96
20.24
17.71
15.51
13.72
12.32
11.30
10.64
10.33
10.28
10.26
10.00
9.21
7.78
5.84
3.65
1.49
-0.47
-2.23
-3.96
-5.80
-7.82
-9.98
-12.19
-14.34
-16.34
-18.04
-19.22
-19.58
-18.86
-16.87
-13.65
-9.41
-4.53
0.53
5.31
9.36
12.35
14.09
14.52
13.81
12.28
10.34
8.41
6.85
5.86
5.46
5.49
5.67
5.72
5.45
4.85
4.06
3.25
2.52
1.83
1.03
-0.07
-1.55
-3.32
-5.16
-6.81
-8.17
-9.29
-10.39
-11.74
-13.54
-15.88
-18.66
-21.59
-24.21
-25.98
-26.38
-25.06
-22.03
-17.57
-12.19
-6.41
-0.61
4.97
10.20
14.91
18.84
21.71
23.35
23.73
23.05
21.62
19.77
17.78
15.85
14.09
12.61
11.43
10.59
10.03
9.68
9.33
8.81
7.92
6.58
4.84
2.90
1.02
-0.57
-1.76
-2.62
-3.30
-4.07
-5.09
-6.50
-8.30
-10.41
-12.63
-14.64
-15.98
-16.18
-14.93
-12.17
-8.14
-3.35
1.61
6.20
9.99
12.72
14.26
14.60
13.90
12.48
10.75
9.13
7.89
7.11
6.72
6.62
6.71
6.97
7.30
7.59
7.65
7.32
6.52
5.33
3.92
2.42
0.94
-0.56
-2.12
-3.80
-5.57
-7.34
-9.04
-10.65
-12.27
-14.07
-16.16
-18.51
-20.80
-22.47
-22.88
-21.55
-18.40
-13.81
-8.52
-3.31
1.22
4.84
7.61
9.72
11.25
12.17
12.32
11.65
10.31
8.64
7.03
5.75
4.87
4.29
3.88
3.60
3.49
3.66
4.11
4.65
4.99
4.78
3.80
2.11
-0.05
-2.30
-4.31
-5.94
-7.20
-8.28
-9.43
-10.87
-12.72
-14.96
-17.36
-19.55
-21.04
-21.35
-20.14
-17.37
-13.30
-8.45
-3.44
1.25
5.30
8.64
11.24
13.07
14.03
14.05
13.18
11.70
10.07
8.80
8.21
8.31
8.83
9.37
9.58
9.34
8.77
8.13
7.65
7.39
7.24
6.92
6.23
5.10
3.62
2.00
0.45
-0.93
-2.18
-3.39
-4.71
-6.24
-8.06
-10.18
-12.50
-14.74
-16.46
-17.11
-16.24
-13.67
-9.56
-4.39
1.18
6.49
10.97
14.23
16.04
16.42
15.57
13.91
11.98
10.31
9.30
9.10
9.60
10.45
11.26
11.66
11.54
10.97
10.20
9.52
9.07
8.78
8.46
7.86
6.87
5.54
4.05
2.58
1.25
0.08
-1.01
-2.10
-3.28
-4.61
-6.19
-8.08
-10.28
-12.63
-14.82
-16.34
-16.69
-15.51
-12.77
-8.77
-4.07
0.73
5.13
8.81
11.70
13.78
15.03
15.37
14.73
13.19
11.03
8.76
6.97
6.14
6.40
7.50
8.87
9.92
10.25
9.86
9.07
8.32
7.90
7.83
7.82
7.52
6.67
5.27
3.51
1.64
-0.15
-1.81
-3.37
-4.85
-6.23
-7.51
-8.81
-10.29
-12.14
-14.30
-16.39
-17.73
-17.58
-15.50
-11.53
-6.24
-0.52
4.72
8.88
11.70
13.26
13.76
13.45
12.55
11.25
9.80
8.46
7.49
7.02
7.03
7.34
7.69
7.88
7.80
7.50
7.11
6.78
6.57
6.40
6.10
5.46
4.38
2.93
1.36
-0.01
-0.94
-1.45
-1.81
-2.41
-3.60
-5.51
-8.01
-10.73
-13.24
-15.09
-15.96
-15.65
-14.07
-11.25
-7.36
-2.73
2.14
6.68
10.35
12.78
13.82
13.65
12.61
11.13
9.60
8.27
7.26
6.57
6.18
6.05
6.10
6.20
6.23
6.16
6.04
6.02
6.21
6.57
6.84
6.64
5.67
3.89
1.56
-0.82
-2.80
-4.13
-4.89
-5.37
-5.90
-6.78
-8.11
-9.84
-11.77
-13.51
-14.57
-14.49
-12.94
-9.93
-5.84
-1.29
3.05
6.73
9.53
11.49
12.68
13.10
12.73
11.60
9.94
8.13
6.63
5.71
5.43
5.55
5.77
5.87
5.81
5.70
5.68
5.79
5.92
5.89
5.54
4.86
3.93
2.88
1.82
0.78
-0.28
-1.38
-2.57
-3.86
-5.28
-6.87
-8.65
-10.53
-12.28
-13.54
-13.91
-13.05
-10.86
-7.51
-3.43
0.79
4.63
7.71
9.87
11.14
11.63
11.47
10.84
9.88
8.78
7.73
6.86
6.22
5.77
5.46
5.28
5.26
5.48
5.92
6.46
6.86
6.88
6.35
5.26
3.77
2.12
0.49
-0.98
-2.27
-3.43
-4.57
-5.80
-7.25
-8.98
-10.95
-12.89
-14.38
-14.90
-14.07
-11.80
-8.38
-4.36
-0.35
3.14
5.87
7.79
8.97
9.47
9.34
8.65
7.55
6.29
5.15
4.32
3.87
3.71
3.68
3.64
3.54
3.34
3.09
2.76
2.34
1.79
1.15
0.46
-0.24
-0.97
-1.79
-2.75
-3.85
-5.09
-6.48
-8.03
-9.83
-11.83
-13.83
-15.42
-16.11
-15.51
-13.53
-10.45
-6.81
-3.18
-0.01
2.53
4.44
5.77
6.54
6.68
6.16
5.04
3.55
1.97
0.58
-0.47
-1.18
-1.66
-1.98
-2.15
-2.16
-2.01
-1.85
-1.90
-2.43
-3.56
-5.24
-7.26
-9.44
-11.72
-14.18
-17.03
-20.51
-24.69
-29.41
-34.35
-39.14
-43.46
-47.06
-49.70
-51.18
-51.31
-50.00
-47.08
-42.55
-36.55
-29.43
-21.67
-13.73
-6.08
0.85
6.70
11.70
16.22
20.51
24.47
27.75
29.95
30.79
30.13
28.06
25.82
24.73
25.58
28.17
31.51
34.47
36.18
36.17
34.43
32.87
33.50
37.43
44.12
51.80
58.55
63.05
65.03
65.32
67.56
75.50
91.31
114.45
142.34
171.97
201.05
228.27
240.72
228.74
189.84
131.36
65.74
3.61
-48.86
-89.36
-118.22
-137.54
-148.25
-151.12
-146.90
-136.49
-121.03
-101.90
-81.18
-61.76
-46.75
-36.54
-29.59
-23.86
-17.72
-10.65
-3.33
2.55
5.02
2.66
-3.61
-11.40
-18.20
-22.31
-23.40
-22.32
-20.55
-19.56
-20.29
-22.62
-24.43
-24.71
-23.37
-21.10
-19.01
-18.03
-18.57
-20.39
-22.53
-23.93
-24.10
-23.13
-21.57
-20.15
-19.39
-19.34
-19.67
-19.88
-19.60
-18.92
-18.14
-17.66
-17.81
-18.74
-20.36
-22.36
-24.32
-25.76
-26.44
-26.32
-25.58
-24.61
-23.85
-23.55
-23.63
-23.64
-22.90
-20.78
-16.88
-11.16
-3.94
4.14
12.41
20.21
27.06
32.58
36.44
38.32
37.96
35.25
30.35
23.72
16.01
7.98
0.29
-6.47
-11.90
-15.73
-17.87
-18.38
-17.51
-15.62
-13.15
-10.58
-8.33
-6.78
-6.20
-6.64
-7.95
-9.78
-11.75
-13.62
-15.41
-17.29
-19.39
-21.51
-23.07
-23.23
-21.31
-17.11
-11.10
-4.32
2.11
7.29
10.89
13.03
13.99
13.98
13.00
11.01
8.15
4.91
2.04
0.31
0.16
1.56
4.10
7.16
10.27
13.13
15.63
17.71
19.21
20.02
20.06
19.45
18.49
17.52
16.76
16.24
15.75
15.03
13.86
12.20
10.12
7.75
5.23
2.75
0.64
-0.66
-0.60
1.23
4.89
10.00
15.80
21.35
25.79
28.57
29.48
28.69
26.59
23.73
20.63
17.69
15.15
13.10
11.50
10.26
9.28
8.46
7.69
6.91
6.11
5.30
4.49
3.60
2.43
0.73
-1.65
-4.59
-7.70
-10.43
-12.28
-13.06
-12.98
-12.59
-12.59
-13.56
-15.79
-19.10
-22.85
-26.14
-27.98
-27.64
-24.83
-19.81
-13.31
-6.34
0.10
5.21
8.57
10.17
10.29
9.42
8.03
6.49
5.01
3.62
2.26
0.80
-0.89
-2.87
-5.07
-7.30
-9.20
-10.43
-10.83
-10.57
-10.17
-10.29
-11.50
-14.00
-17.51
-21.42
-25.08
-28.09
-30.43
-32.42
-34.50
-37.05
-40.15
-43.60
-46.92
-49.46
-50.55
-49.67
-46.61
-41.54
-35.06
-28.04
-21.46
-16.06
-12.18
-9.71
-8.15
-6.91
-5.55
-3.91
-2.07
-0.25
1.44
3.02
4.65
6.47
8.47
10.47
12.20
13.43
14.12
14.39
14.45
14.49
14.54
14.45
14.01
13.06
11.57
9.67
7.65
5.81
4.47
3.93
4.48
6.47
10.26
16.05
23.72
32.77
42.36
51.57
59.59
65.85
70.01
71.88
71.36
68.40
63.06
55.52
46.08
35.25
23.79
12.72
3.25
-3.57
-7.23
-8.10
-7.36
-6.64
-7.34
-10.11
-14.78
-20.71
-27.13
-33.23
-37.80
-39.05
-34.91
-24.26
-8.28
9.05
21.95
25.18
16.50
-2.19
-25.83
-48.61
-66.33
-77.31
-81.59
-79.46
-70.72
-55.23
-34.22
-11.03
9.51
22.75
26.18
20.25
8.04
-5.96
-17.20
-22.33
-19.96
-11.00
1.50
13.48
21.10
22.21
16.78
6.43
-6.55
-19.81
-30.84
-36.91
-35.52
-25.72
-9.46
8.19
20.77
23.09
13.61
-5.20
-28.37
-50.82
-68.78
-79.98
-83.07
-77.41
-63.61
-44.39
-24.48
-9.32
-2.79
-5.76
-15.97
-29.39
-41.71
-49.30
-49.58
-41.19
-24.55
-2.47
19.96
36.76
43.25
37.95
23.03
3.05
-16.82
-32.14
-39.78
-38.02
-26.85
-8.52
12.36
29.82
38.50
35.81
22.77
3.14
-18.37
-37.72
-51.95
-59.02
-57.76
-48.53
-34.13
-19.80
-11.64
-13.99
-27.15
-47.27
-68.20
-84.36
-92.69
-92.81
-85.72
-72.48
-53.98
-31.73
-8.78
10.53
22.08
23.89
17.18
5.73
-6.15
-15.65
-22.36
-27.59
-32.60
-37.06
-38.71
-34.43
-21.98
-1.41
24.64
51.88
76.06
94.33
106.02
112.35
115.58
118.03
121.41
126.18
131.21
133.78
130.29
117.64
94.75
63.62
28.97
-3.28
-28.27
-43.76
-50.35
-50.53
-47.13
-42.36
-37.74
-34.35
-32.98
-33.38
-33.69
-30.56
-20.71
-3.04
20.08
43.27
60.32
66.83
61.70
46.98
26.26
3.13
-19.04
-36.63
-45.47
-41.74
-24.21
3.98
35.21
59.97
70.71
65.11
46.65
22.32
-0.97
-19.45
-33.04
-43.64
-52.31
-57.80
-57.17
-48.19
-31.69
-12.18
3.93
11.43
8.97
-0.42
-11.37
-19.07
-21.45
-19.20
-13.99
-6.76
2.78
14.96
28.60
40.51
46.65
44.32
33.68
17.45
-0.74
-18.08
-32.88
-43.66
-47.99
-42.74
-25.96
0.75
31.48
57.54
71.12
68.56
51.57
25.63
-2.93
-29.32
-50.72
-65.07
-69.92
-62.88
-43.48
-15.27
14.18
35.63
42.21
32.60
11.57
-12.48
-31.45
-40.89
-40.92
-34.72
-26.00
-17.02
-8.11
1.31
11.45
21.44
29.69
34.76
36.29
35.15
32.97
31.32
30.98
31.73
32.57
32.26
29.81
24.85
17.89
10.29
4.01
1.05
2.69
8.80
17.73
26.82
33.43
35.93
34.18
29.25
22.49
14.83
6.36
-3.44
-15.07
-28.48
-42.78
-56.36
-67.31
-73.86
-74.84
-70.00
-60.02
-46.43
-31.03
-15.58
-1.38
10.77
20.45
27.39
31.45
32.71
31.55
28.77
25.40
22.49
20.80
20.62
21.76
23.69
25.85
27.81
29.41
30.68
31.63
32.19
32.10
31.01
28.71
25.19
20.74
15.81
10.87
6.16
1.70
-2.75
-7.57
-13.21
-19.96
-27.85
-36.32
-44.26
-50.08
-52.16
-49.34
-41.46
-29.48
-15.21
-0.71
12.24
22.60
30.04
34.72
36.96
37.03
35.15
31.58
26.87
21.77
17.10
13.56
11.46
10.69
10.82
11.33
11.82
12.12
12.16
11.86
11.03
9.42
6.87
3.47
-0.39
-4.23
-7.64
-10.57
-13.32
-16.45
-20.62
-26.36
-33.80
-42.58
-51.68
-59.44
-63.97
-63.59
-57.43
-45.83
-30.28
-13.00
3.65
17.84
28.57
35.62
39.37
40.44
39.44
36.93
33.35
29.16
24.79
20.72
17.30
14.77
13.18
12.40
12.30
12.70
13.43
14.23
14.71
14.36
12.74
9.59
5.04
-0.41
-6.04
-11.18
-15.49
-19.05
-22.47
-26.56
-32.05
-39.12
-47.07
-54.36
-58.99
-59.12
-53.79
-43.27
-28.95
-12.88
2.93
16.93
28.24
36.47
41.52
43.45
42.48
39.08
33.99
28.14
22.39
17.44
13.71
11.31
10.21
10.17
10.89
11.92
12.73
12.83
11.85
9.68
6.47
2.61
-1.51
-5.55
-9.42
-13.21
-17.20
-21.69
-26.99
-33.35
-40.75
-48.81
-56.56
-62.53
-65.00
-62.54
-54.59
-41.76
-25.72
-8.71
7.09
20.14
29.76
35.96
39.20
40.07
39.10
36.79
33.59
29.99
26.44
23.30
20.73
18.75
17.20
15.95
14.93
14.12
13.55
13.09
12.49
11.38
9.38
6.28
2.16
-2.69
-7.82
-12.82
-17.47
-21.80
-26.08
-30.72
-36.04
-42.02
-48.05
-52.92
-55.07
-53.07
-46.14
-34.53
-19.48
-2.91
13.16
27.00
37.53
44.27
47.29
47.04
44.25
39.80
34.64
29.67
25.57
22.75
21.28
20.97
21.48
22.49
23.73
25.04
26.23
27.06
27.16
26.12
23.60
19.54
14.20
8.12
1.98
-3.67
-8.52
-12.60
-16.23
-19.92
-24.21
-29.48
-35.66
-42.11
-47.59
-50.52
-49.48
-43.73
-33.53
-20.14
-5.41
8.84
21.22
31.10
38.38
43.32
46.21
47.31
46.90
45.38
43.32
41.34
39.95
39.42
39.64
40.32
41.05
41.57
41.79
41.83
41.78
41.59
41.00
39.62
37.12
33.43
28.85
23.92
19.23
15.18
11.84
8.94
6.01
2.54
-1.83
-7.20
-13.24
-19.18
-23.87
-26.05
-24.68
-19.39
-10.60
0.46
12.14
22.83
31.34
37.10
40.09
40.65
39.30
36.55
32.96
29.11
25.63
23.12
22.02
22.45
24.15
26.45
28.50
29.59
29.40
28.10
26.19
24.23
22.49
20.83
18.80
15.90
11.88
6.88
1.33
-4.24
-9.46
-14.23
-18.67
-22.93
-27.12
-31.23
-35.18
-38.80
-41.75
-43.54
-43.48
-40.98
-35.76
-28.13
-18.99
-9.56
-0.99
5.99
11.18
14.74
16.93
17.91
17.71
16.39
14.25
11.78
9.64
8.30
7.94
8.34
9.00
9.43
9.31
8.60
7.46
6.10
4.63
2.97
0.95
-1.61
-4.74
-8.28
-11.94
-15.45
-18.62
-21.40
-23.89
-26.23
-28.61
-31.25
-34.42
-38.35
-43.07
-48.19
-52.86
-55.86
-56.05
-52.77
-46.16
-37.13
-27.08
-17.39
-9.09
-2.63
1.94
4.85
6.31
6.52
5.71
4.24
2.63
1.42
1.03
1.52
2.61
3.78
4.49
4.48
3.85
3.05
2.59
2.78
3.58
4.60
5.33
5.39
4.73
3.58
2.31
1.22
0.43
-0.16
-0.75
-1.53
-2.70
-4.39
-6.73
-9.66
-12.80
-15.40
-16.39
-14.70
-9.67
-1.30
9.68
21.96
34.11
44.88
53.48
59.66
63.67
66.05
67.47
68.65
70.28
72.93
76.97
82.39
88.67
94.76
99.28
100.93
98.92
93.23
84.65
74.32
63.38
52.52
42.00
31.73
21.59
11.58
1.84
-7.40
-15.99
-23.79
-30.81
-37.07
-42.69
-47.89
-52.95
-58.21
-63.80
-69.54
-74.82
-78.74
-80.37
-79.19
-75.19
-69.01
-61.61
-53.94
-46.64
-39.94
-33.76
-27.95
-22.48
-17.44
-12.99
-9.22
-6.14
-3.71
-1.91
-0.80
-0.42
-0.81
-1.86
-3.27
-4.56
-5.08
-4.08
-0.90
4.86
13.06
22.93
33.06
41.79
47.56
49.41
47.18
41.54
33.76
25.34
17.57
11.25
6.60
3.45
1.57
0.98
2.09
5.55
11.89
21.08
32.26
43.76
53.39
58.98
59.04
53.32
43.06
30.82
19.73
12.55
10.65
13.59
19.41
25.47
29.50
30.34
28.00
23.25
16.99
9.99
2.85
-3.75
-8.99
-12.17
-13.02
-12.14
-10.88
-10.88
-13.43
-18.82
-26.31
-34.40
-41.50
-46.53
-49.20
-49.85
-49.22
-48.05
-46.90
-46.10
-45.74
-45.63
-45.35
-44.30
-41.84
-37.59
-31.58
-24.36
-16.80
-9.83
-4.17
-0.22
1.89
2.14
0.61
-2.48
-6.62
-10.93
-14.21
-15.35
-13.76
-9.71
-4.42
0.24
2.48
1.23
-3.41
-10.22
-17.43
-23.35
-26.99
-28.25
-27.72
-26.25
-24.53
-22.76
-20.71
-17.88
-13.73
-7.95
-0.63
7.69
16.18
23.96
30.41
35.43
39.43
43.05
46.70
50.24
52.92
53.78
52.19
48.34
43.27
38.54
35.45
34.44
34.89
35.41
34.46
30.96
24.61
15.77
5.20
-6.24
-17.62
-27.90
-35.84
-40.18
-40.04
-35.29
-26.79
-16.29
-5.93
2.28
7.00
7.67
4.52
-1.78
-10.35
-20.34
-31.07
-42.04
-52.88
-63.35
-73.31
-82.80
-91.86
-100.30
-107.53
-112.39
-113.46
-109.56
-100.30
-86.39
-69.55
-52.06
-36.16
-23.63
-15.48
-11.95
-12.57
-16.24
-21.52
-26.84
-31.02
-33.51
-34.58
-35.13
-36.26
-38.85
-43.17
-48.79
-54.73
-59.82
-63.11
-64.02
-62.45
-58.62
-52.82
-45.31
-36.28
-25.98
-14.80
-3.30
8.00
18.70
28.65
37.81
46.14
53.45
59.50
64.06
67.18
69.23
70.70
72.06
73.47
74.77
75.58
75.53
74.50
72.63
70.27
67.76
65.22
62.56
59.49
55.80
51.46
46.69
41.92
37.64
34.20
31.76
30.26
29.51
29.27
29.40
29.74
30.12
30.30
29.93
28.85
27.16
25.29
23.89
23.48
24.10
25.23
25.91
25.23
22.72
18.62
13.72
8.95
4.99
2.04
-0.10
-1.80
-3.34
-4.80
-6.12
-7.29
-8.40
-9.63
-11.03
-12.54
-13.94
-15.00
-15.64
-15.98
-16.19
-16.37
-16.45
-16.18
-15.24
-13.47
-10.89
-7.68
-4.16
-0.61
2.74
5.78
8.48
10.94
13.33
15.86
18.56
21.23
23.45
24.56
23.92
20.98
15.59
7.99
-1.09
-10.60
-19.50
-27.12
-33.67
-40.36
-49.15
-62.12
-80.59
-104.29
-131.09
-157.35
-178.79
-191.77
-194.22
-186.21
-169.73
-148.00
-124.60
-102.59
-84.05
-69.99
-60.47
-54.80
-51.79
-50.00
-47.93
-44.37
-38.68
-30.97
-22.01
-12.94
-4.80
1.81
6.84
10.71
14.04
17.31
20.72
24.13
27.17
29.36
30.32
29.91
28.26
25.80
23.06
20.55
18.48
16.77
15.13
13.22
10.90
8.28
5.66
3.32
1.42
-0.08
-1.28
-2.20
-2.73
-2.74
-2.22
-1.43
-0.89
-1.15
-2.55
-5.15
-8.75
-13.07
-17.83
-22.78
-27.54
-31.58
-34.27
-35.12
-34.05
-31.41
-27.89
-24.20
-20.88
-18.19
-16.26
-15.29
-15.57
-17.39
-20.76
-25.26
-29.99
-33.84
-35.84
-35.38
-32.26
-26.62
-18.79
-9.31
0.98
10.83
18.71
23.12
23.19
19.02
11.72
3.05
-5.23
-12.06
-17.27
-21.55
-25.88
-31.01
-36.99
-43.14
-48.30
-51.12
-50.63
-46.38
-38.62
-28.08
-15.84
-3.05
9.20
20.01
28.74
35.18
39.49
42.19
43.96
45.42
46.82
48.07
48.79
48.54
47.06
44.38
40.79
36.75
32.71
28.99
25.72
22.88
20.35
17.95
15.54
13.07
10.55
8.04
5.63
3.29
0.96
-1.47
-4.10
-7.03
-10.36
-14.23
-18.76
-23.88
-29.15
-33.76
-36.63
-36.68
-33.24
-26.23
-16.18
-4.00
9.35
23.10
36.75
49.88
62.03
72.65
81.17
87.21
90.68
91.81
91.02
88.78
85.54
81.63
77.33
72.86
68.35
63.85
59.28
54.43
49.12
43.23
36.89
30.41
24.21
18.61
13.65
8.97
3.91
-2.16
-9.47
-17.63
-25.66
-32.39
-37.00
-39.41
-40.49
-41.67
-44.41
-49.45
-56.23
-62.67
-65.42
-60.65
-44.95
-16.45
24.34
73.99
126.40
173.98
209.45
227.95
228.27
213.06
187.44
157.04
126.07
96.49
68.51
41.74
16.47
-6.16
-24.65
-38.11
-46.90
-52.38
-56.15
-59.27
-62.05
-64.23
-65.66
-66.60
-67.67
-69.50
-72.19
-75.35
-78.25
-80.42
-81.75
-82.65
-83.63
-85.04
-86.93
-89.10
-91.23
-93.01
-94.20
-94.60
-94.10
-92.70
-90.50
-87.72
-84.56
-81.28
-78.19
-75.61
-73.68
-72.23
-70.47
-67.13
-60.73
-50.13
-35.06
-16.32
4.46
25.13
43.57
57.95
66.99
70.25
68.44
63.69
59.02
57.47
60.70
68.20
77.32
84.45
86.70
83.26
75.68
66.96
60.12
57.01
58.05
62.86
71.12
82.99
98.59
116.94
135.23
148.90
152.93
143.72
120.61
86.44
46.56
6.80
-28.82
-59.49
-87.56
-116.82
-150.17
-187.56
-225.69
-259.03
-282.18
-292.13
-289.06
-275.88
-256.54
-234.36
-211.03
-186.51
-159.38
-127.25
-87.33
-37.55
21.82
86.58
148.28
195.99
219.83
214.83
183.11
133.26
77.24
26.43
-11.22
-31.87
-34.68
-20.38
9.71
53.36
106.61
163.71
217.71
261.83
290.84
301.99
295.99
276.97
251.42
226.25
206.33
192.70
182.46
170.72
153.21
128.33
97.31
62.69
26.47
-10.70
-48.69
-86.30
-120.24
-146.03
-160.20
-162.47
-156.54
-148.69
-145.53
-151.68
-168.22
-192.03
-216.46
-232.77
-232.08
-207.98
-159.20
-91.25
-16.08
50.98
96.44
113.73
105.70
83.09
59.40
45.07
43.62
52.01
64.31
76.09
86.50
96.98
108.23
118.45
124.74
126.18
126.03
130.90
146.47
172.95
202.73
222.39
218.68
184.76
123.08
43.85
-39.05
-112.86
-169.27
-205.53
-224.52
-231.75
-232.84
-232.36
-233.99
-240.35
-252.58
-269.49
-287.10
-300.10
-301.30
-283.28
-241.53
-177.99
-101.50
-25.08
38.32
79.71
94.36
84.02
56.06
20.35
-15.10
-45.68
-69.58
-86.49
-85.00
-60.67
-21.57
16.04
40.02
47.89
45.29
41.41
44.56
58.44
78.87
97.81
107.64
106.37
94.90
76.59
56.22
38.73
27.61
22.75
22.29
24.38
27.77
30.92
32.19
29.54
22.06
10.44
-4.06
-19.10
-31.60
-38.69
-39.26
-34.00
-24.87
-14.04
-3.33
5.95
13.78
21.57
31.38
44.38
60.03
75.93
88.74
95.37
94.16
85.72
72.82
59.21
48.06
40.98
37.82
37.18
37.17
36.16
33.23
28.37
22.40
16.65
12.44
10.60
11.03
12.69
13.98
13.37
10.04
4.15
-3.35
-11.16
-18.20
-23.94
-28.41
-32.04
-35.45
-39.14
-43.42
-48.22
-53.14
-57.50
-60.54
-61.59
-60.28
-56.63
-50.93
-43.70
-35.52
-26.95
-18.50
-10.66
-3.85
1.63
5.61
8.11
9.28
9.35
8.52
6.96
4.83
2.33
-0.19
-2.29
-3.49
-3.40
-1.85
1.02
4.70
8.41
11.31
12.81
12.76
11.46
9.56
7.76
6.60
6.31
6.82
7.94
9.37
10.87
12.24
13.30
13.90
13.98
13.59
12.92
12.25
11.90
12.11
12.95
14.31
15.94
17.50
18.72
19.42
19.57
19.25
18.62
17.85
17.07
16.42
15.88
15.41
14.91
14.30
13.59
12.86
12.22
11.77
11.49
11.27
10.97
10.44
9.62
8.58
7.45
6.41
5.55
4.87
4.24
3.51
2.50
1.12
-0.62
-2.60
-4.63
-6.52
-8.12
-9.35
-10.19
-10.70
-11.01
-11.21
-11.42
-11.75
-12.25
-12.94
-13.75
-14.52
-15.00
-14.91
-14.04
-12.40
-10.23
-7.93
-5.90
-4.35
-3.26
-2.43
-1.61
-0.67
0.44
1.63
2.85
4.05
5.21
6.27
7.11
7.60
7.74
7.72
7.86
8.56
10.03
12.27
15.01
17.85
20.45
22.65
24.52
26.33
28.38
30.91
33.95
37.29
40.50
43.04
44.32
43.89
41.48
37.12
31.13
24.12
16.89
10.27
4.95
1.31
-0.75
-1.68
-2.15
-2.82
-4.07
-5.93
-8.15
-10.36
-12.27
-13.84
-15.17
-16.42
-17.76
-19.22
-20.82
-22.59
-24.48
-26.31
-27.69
-28.09
-27.06
-24.48
-20.57
-15.93
-11.22
-6.97
-3.45
-0.71
1.36
2.85
3.70
3.83
3.06
1.29
-1.42
-4.81
-8.37
-11.53
-13.82
-15.13
-15.74
-16.23
-17.12
-18.64
-20.64
-22.67
-24.34
-25.48
-26.24
-26.92
-27.83
-29.14
-30.88
-33.03
-35.59
-38.45
-41.31
-43.55
-44.26
-42.65
-38.29
-31.48
-23.10
-14.32
-6.13
0.94
6.80
11.57
15.33
17.95
19.19
18.93
17.36
14.98
12.44
10.34
8.99
8.35
8.09
7.71
6.71
4.72
1.70
-2.10
-6.21
-10.13
-13.59
-16.56
-19.25
-21.86
-24.54
-27.30
-30.18
-33.27
-36.61
-40.05
-43.02
-44.67
-44.10
-40.80
-34.91
-27.16
-18.65
-10.40
-3.11
2.96
7.75
11.28
13.52
14.47
14.18
12.85
10.80
8.40
5.99
3.85
2.17
0.96
0.10
-0.67
-1.66
-3.08
-4.97
-7.13
-9.28
-11.16
-12.72
-14.13
-15.73
-17.79
-20.45
-23.71
-27.49
-31.63
-35.88
-39.77
-42.54
-43.26
-41.10
-35.71
-27.44
-17.31
-6.69
3.16
11.45
18.00
23.02
26.86
29.76
31.76
32.83
32.92
32.17
30.80
29.12
27.45
25.97
24.79
23.90
23.18
22.44
21.51
20.26
18.65
16.69
14.41
11.77
8.70
5.13
1.10
-3.26
-7.85
-12.65
-17.78
-23.33
-29.12
-34.55
-38.59
-40.07
-38.05
-32.26
-23.20
-12.06
-0.34
10.57
19.75
26.77
31.62
34.50
35.64
35.34
33.99
32.03
30.03
28.40
27.38
26.92
26.74
26.53
26.07
25.27
24.15
22.70
20.88
18.60
15.80
12.50
8.84
5.00
1.14
-2.66
-6.41
-10.29
-14.51
-19.29
-24.68
-30.45
-35.91
-40.07
-41.80
-40.23
-35.09
-26.81
-16.43
-5.21
5.71
15.60
24.09
31.09
36.54
40.38
42.55
43.16
42.51
41.05
39.22
37.42
35.84
34.58
33.60
32.83
32.19
31.53
30.73
29.60
27.99
25.70
22.64
18.81
14.38
9.62
4.85
0.31
-3.97
-8.23
-12.93
-18.49
-25.03
-32.14
-38.82
-43.74
-45.67
-43.90
-38.42
-29.96
-19.61
-8.54
2.25
12.06
20.43
27.05
31.72
34.40
35.23
34.58
32.96
30.99
29.21
28.01
27.54
27.72
28.31
29.03
29.64
29.93
29.76
28.98
27.53
25.40
22.76
19.78
16.64
13.40
10.06
6.60
3.02
-0.64
-4.42
-8.52
-13.21
-18.74
-24.95
-31.15
-36.21
-38.87
-38.19
-33.95
-26.63
-17.27
-7.04
3.06
12.37
20.48
27.17
32.23
35.47
36.85
36.59
35.22
33.44
31.83
30.71
29.96
29.18
27.89
25.80
22.96
19.77
16.70
14.11
12.06
10.31
8.49
6.26
3.47
0.21
-3.32
-6.85
-10.16
-13.16
-15.85
-18.40
-21.08
-24.21
-28.14
-33.00
-38.53
-44.02
-48.38
-50.42
-49.29
-44.75
-37.26
-27.81
-17.57
-7.52
1.67
9.72
16.52
22.00
26.02
28.47
29.34
28.87
27.50
25.81
24.29
23.25
22.69
22.39
22.06
21.46
20.50
19.22
17.73
16.13
14.40
12.52
10.40
7.97
5.22
2.20
-0.97
-4.11
-7.02
-9.62
-11.96
-14.27
-16.93
-20.35
-24.83
-30.40
-36.67
-42.79
-47.64
-50.06
-49.24
-45.01
-37.92
-29.03
-19.59
-10.67
-2.94
3.32
8.07
11.36
13.28
13.93
13.52
12.43
11.06
9.76
8.77
8.13
7.81
7.72
7.74
7.75
7.62
7.25
6.55
5.48
4.05
2.26
0.14
-2.29
-5.01
-7.91
-10.86
-13.73
-16.38
-18.75
-20.87
-22.82
-24.75
-26.88
-29.41
-32.44
-35.83
-39.11
-41.54
-42.23
-40.47
-35.95
-28.92
-20.12
-10.54
-1.16
7.30
14.47
20.30
24.90
28.39
30.83
32.21
32.57
32.09
31.13
30.12
29.47
29.32
29.53
29.81
29.84
29.48
28.78
27.95
27.14
26.36
25.42
24.08
22.13
19.52
16.38
12.96
9.58
6.46
3.69
1.17
-1.32
-4.06
-7.25
-10.98
-15.23
-19.87
-24.63
-29.05
-32.45
-34.10
-33.38
-30.09
-24.49
-17.27
-9.28
-1.33
6.01
12.35
17.39
20.90
22.76
23.05
22.15
20.69
19.32
18.57
18.67
19.64
21.30
23.44
25.89
28.57
31.56
34.99
39.01
43.56
48.37
52.93
56.71
59.41
61.13
62.38
63.82
65.87
68.50
71.15
72.90
72.71
69.71
63.46
54.20
43.08
32.09
23.61
19.69
21.18
27.27
35.61
43.19
47.40
47.04
42.60
35.81
28.79
23.24
19.87
18.52
18.43
18.74
18.75
18.05
16.44
13.81
10.16
5.63
0.56
-4.54
-9.11
-12.73
-15.29
-16.94
-18.06
-19.04
-20.23
-21.88
-24.16
-27.16
-30.84
-34.94
-39.02
-42.56
-45.21
-46.87
-47.88
-48.86
-50.54
-53.53
-58.15
-64.35
-71.74
-79.53
-86.60
-91.55
-92.99
-89.95
-82.23
-70.68
-56.93
-42.95
-30.35
-19.91
-11.52
-4.48
1.92
7.99
13.54
18.09
21.26
23.10
24.00
24.56
25.28
26.28
27.36
28.15
28.29
27.65
26.36
24.67
22.82
20.95
19.00
16.85
14.37
11.53
8.36
4.90
1.19
-2.78
-6.97
-11.23
-15.30
-18.90
-21.91
-24.51
-27.16
-30.41
-34.53
-39.28
-43.81
-47.01
-47.82
-45.74
-40.93
-34.11
-26.28
-18.35
-10.95
-4.38
1.26
5.89
9.39
11.60
12.46
12.08
10.82
9.18
7.72
6.83
6.64
7.05
7.80
8.58
9.14
9.41
9.39
9.13
8.68
8.01
7.03
5.59
3.66
1.29
-1.34
-4.01
-6.56
-8.97
-11.33
-13.76
-16.33
-19.06
-21.94
-25.05
-28.60
-32.77
-37.57
-42.59
-47.03
-49.85
-50.09
-47.28
-41.57
-33.72
-24.77
-15.76
-7.42
-0.12
6.09
11.23
15.28
18.17
19.79
20.17
19.49
18.10
16.42
14.86
13.68
13.01
12.81
12.94
13.19
13.35
13.28
12.91
12.23
11.25
9.93
8.21
6.00
3.32
0.28
-2.93
-6.08
-8.99
-11.58
-13.93
-16.19
-18.60
-21.42
-24.84
-28.95
-33.60
-38.32
-42.33
-44.76
-44.78
-41.99
-36.47
-28.81
-19.94
-10.85
-2.33
5.08
11.14
15.81
19.12
21.17
22.08
22.11
21.56
20.81
20.11
19.61
19.27
18.97
18.59
18.06
17.36
16.50
15.47
14.22
12.69
10.86
8.77
6.56
4.32
2.09
-0.15
-2.47
-4.92
-7.53
-10.26
-13.09
-16.04
-19.17
-22.59
-26.38
-30.54
-34.90
-39.13
-42.65
-44.77
-44.84
-42.43
-37.44
-30.24
-21.49
-11.99
-2.48
6.50
14.56
21.40
26.74
30.28
31.78
31.21
28.87
25.35
21.44
17.90
15.21
13.45
12.26
11.10
9.51
7.30
4.60
1.75
-0.92
-3.28
-5.39
-7.43
-9.51
-11.68
-13.85
-15.94
-17.87
-19.65
-21.33
-22.99
-24.67
-26.41
-28.23
-30.30
-32.76
-35.75
-39.12
-42.34
-44.50
-44.56
-41.78
-35.98
-27.71
-17.97
-7.90
1.63
10.09
17.27
23.01
27.15
29.54
30.20
29.38
27.60
25.49
23.66
22.51
22.18
22.58
23.44
24.45
25.35
26.03
26.50
26.87
27.24
27.58
27.70
27.32
26.18
24.18
21.44
18.20
14.72
11.17
7.51
3.53
-0.97
-6.16
-12.03
-18.50
-25.34
-32.27
-38.81
-44.27
-47.81
-48.55
-45.93
-39.81
-30.66
-19.35
-6.96
5.50
17.20
27.49
35.77
41.47
44.13
43.61
40.28
35.03
29.14
23.86
20.04
17.91
17.08
16.86
16.56
15.84
14.80
13.83
13.32
13.35
13.65
13.62
12.69
10.48
7.02
2.69
-2.03
-6.71
-11.13
-15.26
-19.15
-22.85
-26.37
-29.73
-33.00
-36.36
-39.89
-43.43
-46.42
-48.02
-47.38
-43.94
-37.77
-29.55
-20.31
-11.09
-2.67
4.54
10.35
14.72
17.61
19.06
19.26
18.57
17.52
16.62
16.23
16.51
17.31
18.36
19.32
19.94
20.10
19.88
19.37
18.69
17.81
16.61
14.92
12.66
9.91
6.87
3.76
0.76
-2.04
-4.71
-7.35
-10.12
-13.22
-16.79
-20.83
-25.10
-29.09
-32.05
-33.23
-32.08
-28.40
-22.54
-15.17
-7.20
0.50
7.23
12.55
16.26
18.38
19.12
18.76
17.65
16.13
14.50
13.01
11.82
10.99
10.46
10.09
9.72
9.27
8.76
8.31
8.02
7.87
7.64
7.01
5.69
3.59
0.92
-1.95
-4.59
-6.78
-8.51
-10.06
-11.82
-14.21
-17.52
-21.75
-26.56
-31.21
-34.75
-36.21
-34.98
-31.05
-25.00
-17.87
-10.77
-4.61
0.14
3.44
5.47
6.47
6.67
6.16
5.10
3.71
2.25
1.01
0.16
-0.28
-0.43
-0.47
-0.51
-0.59
-0.73
-0.96
-1.37
-2.07
-3.11
-4.40
-5.79
-7.14
-8.41
-9.67
-11.05
-12.64
-14.44
-16.43
-18.69
-21.30
-24.31
-27.50
-30.30
-31.77
-30.98
-27.36
-20.98
-12.63
-3.53
5.14
12.55
18.37
22.66
25.56
27.13
27.38
26.42
24.68
22.81
21.50
21.13
21.57
22.26
22.59
22.11
20.86
19.19
17.53
16.15
14.98
13.76
12.15
9.95
7.16
4.00
0.76
-2.31
-5.04
-7.49
-9.88
-12.57
-15.90
-20.01
-24.68
-29.28
-32.87
-34.48
-33.41
-29.50
-23.17
-15.30
-6.91
1.10
8.19
14.15
19.00
22.81
25.56
27.19
27.66
27.06
25.71
24.04
22.48
21.33
20.65
20.29
19.95
19.31
18.21
16.63
14.76
12.85
11.16
9.86
9.05
8.68
8.67
8.88
9.03
8.75
7.52
4.89
0.62
-5.15
-11.99
-19.28
-26.45
-33.07
-38.69
-42.75
-44.52
-43.27
-38.68
-31.23
-22.19
-13.37
-6.38
-2.15
-0.59
-0.81
-1.70
-2.49
-3.15
-4.29
-6.74
-10.96
-16.62
-22.58
-27.31
-29.57
-28.91
-25.94
-21.99
-18.66
-17.46
-19.56
-25.71
-35.89
-48.75
-61.36
-69.72
-70.11
-60.88
-43.59
-22.70
-3.85
8.59
13.31
12.33
9.72
9.60
14.56
25.15
40.39
58.59
78.00
97.09
114.50
129.04
139.85
146.57
149.43
149.19
146.90
143.60
139.96
136.03
131.16
124.26
114.27
100.77
84.39
66.87
50.45
37.06
27.46
20.81
15.09
7.93
-2.28
-15.71
-31.09
-46.31
-59.42
-69.32
-75.99
-80.21
-83.00
-85.10
-86.88
-88.36
-89.40
-89.80
-89.23
-87.26
-83.44
-77.50
-69.63
-60.43
-50.82
-41.71
-33.80
-27.43
-22.69
-19.48
-17.58
-16.75
-16.62
-16.78
-16.81
-16.41
-15.41
-13.81
-11.71
-9.21
-6.41
-3.36
-0.13
3.19
6.43
9.34
11.61
12.94
13.15
12.22
10.28
7.61
4.42
0.85
-3.09
-7.47
-12.34
-17.62
-23.09
-28.36
-32.89
-36.11
-37.43
-36.41
-32.85
-26.92
-19.16
-10.38
-1.48
6.81
13.96
19.66
23.78
26.20
26.86
25.81
23.35
20.05
16.62
13.66
11.48
10.06
9.05
8.12
7.03
5.77
4.41
3.05
1.74
0.47
-0.79
-2.01
-3.17
-4.23
-5.24
-6.31
-7.60
-9.23
-11.25
-13.56
-15.92
-17.90
-19.01
-18.81
-17.10
-13.97
-9.75
-4.92
0.02
4.65
8.67
11.80
13.91
14.96
15.04
14.34
13.10
11.55
9.83
8.07
6.40
5.00
3.97
3.34
2.93
2.49
1.72
0.44
-1.30
-3.32
-5.37
-7.28
-9.01
-10.60
-12.14
-13.68
-15.23
-16.83
-18.60
-20.63
-22.89
-25.07
-26.54
-26.53
-24.46
-20.25
-14.39
-7.80
-1.46
3.95
8.21
11.43
13.84
15.54
16.42
16.38
15.41
13.79
11.95
10.35
9.24
8.67
8.50
8.55
8.65
8.71
8.61
8.26
7.57
6.53
5.23
3.84
2.51
1.31
0.16
-1.09
-2.67
-4.75
-7.44
-10.67
-14.20
-17.55
-20.11
-21.26
-20.57
-17.96
-13.71
-8.44
-2.85
2.39
6.83
10.24
12.61
14.00
14.50
14.22
13.31
12.01
10.66
9.61
9.06
9.01
9.22
9.37
9.20
8.67
7.87
6.97
6.06
5.08
3.88
2.29
0.23
-2.29
-5.20
-8.42
-11.91
-15.60
-19.36
-22.89
-25.73
-27.27
-26.96
-24.47
-19.91
-13.82
-7.06
-0.52
5.15
9.69
13.18
15.85
17.91
19.43
20.34
20.58
20.11
18.98
17.32
15.30
13.14
11.03
9.15
7.64
6.45
5.47
4.51
3.40
2.02
0.36
-1.57
-3.72
-6.05
-8.51
-11.01
-13.46
-15.82
-18.16
-20.62
-23.28
-25.96
-28.15
-29.15
-28.38
-25.62
-21.17
-15.74
-10.11
-4.84
-0.10
4.19
8.19
11.85
14.94
17.12
18.17
18.10
17.16
15.72
14.16
12.82
11.91
11.55
11.72
12.26
12.95
13.52
13.70
13.32
12.33
10.76
8.72
6.36
3.83
1.28
-1.20
-3.64
-6.20
-9.14
-12.66
-16.71
-20.86
-24.33
-26.23
-25.88
-23.10
-18.27
-12.17
-5.67
0.56
6.20
11.13
15.32
18.67
21.06
22.40
22.81
22.55
21.95
21.29
20.74
20.30
19.89
19.42
18.78
17.93
16.89
15.76
14.70
13.85
13.30
12.94
12.54
11.81
10.50
8.49
5.79
2.51
-1.20
-5.19
-9.30
-13.35
-17.25
-20.95
-24.41
-27.53
-29.99
-31.36
-31.16
-29.08
-25.16
-19.80
-13.62
-7.25
-1.19
4.28
9.05
13.07
16.32
18.74
20.35
21.24
21.59
21.59
21.42
21.13
20.75
20.29
19.77
19.28
18.90
18.64
18.40
17.98
17.18
15.89
14.16
12.19
10.22
8.37
6.65
4.91
2.94
0.54
-2.36
-5.74
-9.45
-13.23
-16.74
-19.57
-21.28
-21.56
-20.28
-17.57
-13.81
-9.47
-5.00
-0.68
3.35
7.03
10.29
13.01
15.14
16.68
17.79
18.71
19.61
20.53
21.33
21.74
21.56
20.72
19.32
17.54
15.65
13.84
12.31
11.20
10.56
10.32
10.26
10.06
9.37
7.99
5.89
3.26
0.38
-2.43
-4.96
-7.11
-8.88
-10.38
-11.73
-13.08
-14.57
-16.33
-18.40
-20.77
-23.29
-25.63
-27.36
-27.95
-26.95
-24.15
-19.75
-14.29
-8.50
-3.11
1.39
4.82
7.17
8.53
9.01
8.71
7.88
6.86
6.11
5.91
6.35
7.15
7.94
8.32
8.16
7.59
6.89
6.32
5.99
5.81
5.56
5.03
4.06
2.67
0.96
-0.90
-2.70
-4.26
-5.44
-6.23
-6.78
-7.40
-8.45
-10.28
-12.99
-16.32
-19.68
-22.29
-23.42
-22.60
-19.82
-15.49
-10.24
-4.78
0.38
4.91
8.64
11.48
13.34
14.16
13.96
12.90
11.28
9.48
7.87
6.70
6.01
5.68
5.50
5.31
5.08
4.82
4.58
4.33
3.98
3.37
2.43
1.18
-0.29
-1.86
-3.47
-5.13
-6.83
-8.56
-10.26
-11.90
-13.51
-15.21
-17.10
-19.21
-21.39
-23.37
-24.76
-25.17
-24.29
-21.97
-18.26
-13.45
-8.06
-2.70
2.08
5.92
8.72
10.55
11.60
12.01
11.91
11.37
10.52
9.51
8.51
7.65
7.01
6.58
6.36
6.32
6.46
6.71
6.99
7.15
7.03
6.53
5.57
4.20
2.51
0.66
-1.19
-2.90
-4.44
-5.86
-7.27
-8.84
-10.71
-12.94
-15.48
-18.14
-20.59
-22.45
-23.36
-23.11
-21.65
-19.12
-15.80
-12.02
-8.08
-4.21
-0.65
2.43
4.86
6.55
7.46
7.71
7.46
6.94
6.34
5.79
5.34
4.96
4.64
4.36
4.17
4.15
4.31
4.60
4.84
4.79
4.26
3.14
1.48
-0.48
-2.48
-4.21
-5.49
-6.25
-6.60
-6.74
-7.02
-7.77
-9.27
-11.58
-14.48
-17.39
-19.56
-20.28
-19.12
-16.14
-11.80
-6.80
-1.79
2.78
6.72
10.00
12.60
14.46
15.49
15.64
15.05
13.98
12.78
11.73
10.99
10.59
10.44
10.41
10.40
10.33
10.16
9.88
9.47
8.95
8.36
7.68
6.89
5.93
4.69
3.10
1.16
-0.98
-3.09
-4.89
-6.26
-7.25
-8.16
-9.38
-11.22
-13.66
-16.28
-18.44
-19.46
-19.00
-17.14
-14.44
-11.74
-10.06
-10.28
-13.02
-18.37
-25.80
-34.19
-42.14
-48.42
-52.24
-53.37
-51.97
-48.24
-42.16
-33.47
-21.95
-7.72
8.57
25.80
42.65
57.95
70.86
80.93
88.11
92.62
94.87
95.37
94.58
92.81
90.10
86.19
80.60
72.81
62.54
49.88
35.42
20.10
4.99
-8.89
-20.76
-30.05
-36.48
-39.92
-40.54
-38.80
-35.43
-31.34
-27.34
-23.98
-21.42
-19.52
-18.08
-17.02
-16.41
-16.38
-16.91
-17.71
-18.31
-18.26
-17.35
-15.74
-13.85
-12.15
-10.95
-10.27
-9.90
-9.62
-9.33
-9.07
-9.04
-9.37
-10.10
-11.14
-12.34
-13.50
-14.49
-15.27
-15.87
-16.42
-17.13
-18.24
-19.94
-22.27
-25.01
-27.73
-29.83
-30.67
-29.84
-27.19
-22.89
-17.37
-11.22
-5.04
0.62
5.37
8.96
11.35
12.61
12.90
12.45
11.51
10.32
9.14
8.17
7.56
7.29
7.30
7.44
7.59
7.69
7.69
7.54
7.19
6.52
5.50
4.16
2.63
1.06
-0.42
-1.85
-3.33
-5.03
-7.08
-9.50
-12.27
-15.25
-18.24
-20.96
-23.05
-24.07
-23.67
-21.63
-17.99
-13.08
-7.44
-1.68
3.66
8.25
11.91
14.62
16.39
17.23
17.21
16.51
15.43
14.32
13.47
12.95
12.60
12.17
11.44
10.41
9.30
8.35
7.73
7.31
6.83
5.95
4.52
2.57
0.28
-2.13
-4.50
-6.80
-9.08
-11.47
-14.13
-17.19
-20.66
-24.26
-27.42
-29.41
-29.53
-27.45
-23.35
-17.89
-11.92
-6.24
-1.30
2.73
5.94
8.46
10.32
11.52
12.04
11.93
11.32
10.42
9.46
8.66
8.18
8.10
8.41
8.96
9.51
9.79
9.55
8.66
7.15
5.19
3.03
0.91
-1.03
-2.77
-4.44
-6.29
-8.64
-11.74
-15.65
-20.10
-24.48
-27.98
-29.81
-29.47
-26.84
-22.24
-16.24
-9.53
-2.75
3.58
9.05
13.38
16.41
18.12
18.63
18.20
17.16
15.86
14.57
13.46
12.58
11.95
11.50
11.15
10.84
10.46
9.90
9.08
7.97
6.61
5.08
3.50
1.95
0.47
-1.01
-2.60
-4.46
-6.77
-9.65
-13.11
-16.87
-20.38
-22.78
-23.10
-20.60
-15.04
-6.84
2.97
13.15
22.59
30.64
37.21
42.61
47.28
51.63
55.81
59.74
63.13
65.59
66.73
66.27
64.16
60.53
55.77
50.33
44.62
38.90
33.29
27.73
22.13
16.43
10.62
4.74
-1.14
-7.00
-12.94
-19.12
-25.75
-32.98
-40.82
-49.02
-57.07
-64.19
-69.48
-72.13
-71.63
-68.04
-61.89
-54.14
-45.90
-38.12
-31.44
-26.20
-22.45
-20.07
-18.83
-18.37
-18.27
-18.12
-17.57
-16.50
-14.94
-13.09
-11.18
-9.40
-7.89
-6.65
-5.62
-4.70
-3.84
-3.06
-2.52
-2.46
-3.03
-4.20
-5.76
-7.30
-8.49
-9.25
-9.77
-10.49
-11.87
-14.17
-17.30
-20.85
-24.12
-26.33
-26.76
-24.93
-20.77
-14.59
-7.06
0.94
8.54
15.04
20.03
23.39
25.18
25.61
24.93
23.48
21.62
19.79
18.37
17.58
17.44
17.78
18.29
18.69
18.83
18.71
18.45
18.16
17.82
17.31
16.43
15.03
13.10
10.78
8.30
5.91
3.79
1.98
0.42
-1.06
-2.66
-4.63
-7.18
-10.35
-13.91
-17.27
-19.63
-20.17
-18.36
-14.19
-8.20
-1.27
5.65
11.84
17.02
21.34
25.30
29.53
34.68
41.15
49.03
58.00
67.39
76.27
83.62
88.64
90.83
90.10
86.80
81.53
75.05
68.03
60.89
53.77
46.48
38.71
30.20
20.94
11.27
1.76
-6.96
-14.46
-20.64
-25.76
-30.24
-34.41
-38.30
-41.60
-43.69
-43.90
-41.72
-36.97
-29.90
-21.10
-11.32
-1.30
8.38
17.37
25.52
32.74
38.99
44.14
48.05
50.61
51.84
51.95
51.31
50.32
49.28
48.28
47.12
45.31
42.16
36.89
28.81
17.55
3.22
-13.59
-31.77
-50.02
-67.14
-82.26
-95.00
-105.42
-113.82
-120.55
-125.90
-130.04
-133.15
-135.34
-136.66
-136.90
-135.54
-131.80
-124.84
-114.10
-99.56
-81.82
-61.98
-41.41
-21.38
-2.97
13.06
26.25
36.38
43.54
48.05
50.43
51.28
51.12
50.37
49.29
48.07
46.83
45.67
44.66
43.79
42.97
42.00
40.66
38.73
36.08
32.69
28.71
24.39
20.07
16.07
12.65
9.85
7.57
5.51
3.26
0.49
-2.97
-6.93
-10.82
-13.83
-15.13
-14.15
-10.81
-5.53
0.89
7.61
13.92
19.49
24.19
28.05
30.98
32.76
33.11
31.91
29.37
25.95
22.27
18.82
15.82
13.13
10.49
7.69
4.76
1.93
-0.48
-2.23
-3.32
-3.98
-4.53
-5.27
-6.30
-7.59
-9.05
-10.59
-12.20
-13.89
-15.69
-17.58
-19.46
-21.27
-22.96
-24.55
-26.12
-27.69
-29.12
-30.12
-30.22
-29.01
-26.24
-22.04
-16.88
-11.46
-6.52
-2.61
-0.02
1.17
1.08
-0.05
-1.83
-3.67
-4.90
-4.88
-3.35
-0.48
3.09
6.47
8.84
9.67
8.80
6.35
2.62
-2.03
-7.29
-12.93
-18.76
-24.73
-30.75
-36.77
-42.61
-48.07
-52.97
-57.20
-60.79
-63.77
-66.21
-68.07
-69.31
-70.01
-70.45
-71.14
-72.61
-75.25
-78.92
-82.96
-86.32
-87.83
-86.65
-82.53
-75.88
-67.58
-58.66
-49.96
-41.93
-34.58
-27.69
-21.00
-14.41
-7.95
-1.67
4.45
10.55
16.79
23.13
29.31
34.84
39.27
42.41
44.46
45.89
47.19
48.61
50.07
51.18
51.51
50.83
49.16
46.85
44.41
42.38
41.17
40.95
41.55
42.51
43.18
42.90
41.22
37.97
33.39
27.99
22.51
17.76
14.47
13.13
13.82
16.24
19.75
23.59
27.11
29.85
31.64
32.46
32.40
31.51
29.90
27.71
25.16
22.52
20.08
18.07
16.57
15.56
14.87
14.29
13.64
12.83
11.92
10.98
10.08
9.20
8.23
7.04
5.58
3.83
1.84
-0.29
-2.43
-4.49
-6.35
-7.92
-9.23
-10.38
-11.58
-13.03
-14.92
-17.34
-20.28
-23.57
-26.83
-29.43
-30.65
-29.85
-26.77
-21.65
-15.16
-8.26
-1.77
3.73
8.03
11.22
13.48
15.01
15.91
16.19
15.84
14.89
13.47
11.80
10.19
8.88
7.99
7.49
7.27
7.21
7.22
7.26
7.28
7.10
6.55
5.45
3.77
1.63
-0.75
-3.11
-5.31
-7.29
-9.07
-10.71
-12.25
-13.77
-15.36
-17.16
-19.31
-21.85
-24.74
-27.70
-30.24
-31.76
-31.60
-29.32
-24.81
-18.43
-10.90
-3.18
3.93
9.88
14.47
17.79
19.98
21.19
21.48
20.93
19.72
18.15
16.62
15.53
15.09
15.31
15.90
16.49
16.69
16.30
15.38
14.16
12.88
11.67
10.44
8.92
6.94
4.47
1.74
-0.91
-3.18
-5.01
-6.53
-8.03
-9.78
-11.91
-14.46
-17.37
-20.53
-23.71
-26.51
-28.31
-28.48
-26.52
-22.30
-16.13
-8.70
-0.88
6.56
13.01
18.11
21.69
23.76
24.45
24.04
22.93
21.54
20.20
19.13
18.38
17.89
17.59
17.35
17.08
16.72
16.25
15.73
15.24
14.83
14.48
13.99
13.12
11.67
9.61
7.13
4.56
2.23
0.26
-1.39
-2.94
-4.64
-6.62
-8.90
-11.45
-14.20
-17.00
-19.60
-21.58
-22.41
-21.56
-18.76
-14.10
-8.09
-1.47
4.96
10.62
15.18
18.58
20.86
22.05
22.13
21.17
19.39
17.25
15.33
14.10
13.72
14.01
14.55
14.90
14.82
14.34
13.63
12.88
12.14
11.34
10.31
8.88
7.01
4.75
2.25
-0.26
-2.57
-4.52
-6.04
-7.26
-8.44
-9.90
-11.90
-14.54
-17.73
-21.20
-24.48
-26.98
-28.12
-27.41
-24.67
-20.08
-14.22
-7.84
-1.68
3.76
8.26
11.82
14.49
16.27
17.11
17.00
16.09
14.70
13.26
12.18
11.68
11.75
12.15
12.56
12.70
12.45
11.87
11.13
10.43
9.87
9.39
8.80
7.92
6.63
4.97
3.08
1.12
-0.76
-2.56
-4.34
-6.18
-8.15
-10.29
-12.60
-15.12
-17.78
-20.41
-22.61
-23.81
-23.43
-21.16
-17.11
-11.83
-6.11
-0.65
4.13
8.13
11.42
14.03
15.88
16.81
16.76
15.81
14.26
12.50
10.92
9.81
9.31
9.39
9.84
10.39
10.78
10.87
10.70
10.42
10.10
9.64
8.80
7.38
5.40
3.20
1.24
-0.13
-0.89
-1.38
-2.12
-3.48
-5.56
-8.20
-11.09
-13.97
-16.72
-19.22
-21.22
-22.30
-21.93
-19.78
-15.86
-10.61
-4.79
0.82
5.64
9.46
12.30
14.36
15.77
16.57
16.73
16.23
15.16
13.74
12.21
10.78
9.59
8.64
7.92
7.39
7.04
6.86
6.83
6.88
6.89
6.77
6.36
5.56
4.27
2.53
0.48
-1.59
-3.35
-4.59
-5.30
-5.69
-6.09
-6.74
-7.81
-9.29
-11.12
-13.17
-15.24
-17.00
-17.95
-17.57
-15.53
-11.86
-6.98
-1.58
3.63
8.09
11.57
14.04
15.67
16.63
17.07
17.05
16.66
15.98
15.14
14.29
13.52
12.84
12.18
11.45
10.57
9.56
8.50
7.54
6.75
6.13
5.58
4.99
4.24
3.25
2.01
0.53
-1.15
-2.91
-4.61
-6.14
-7.45
-8.59
-9.73
-11.08
-12.83
-15.01
-17.43
-19.69
-21.22
-21.50
-20.25
-17.49
-13.59
-9.12
-4.65
-0.61
2.76
5.35
7.10
7.97
7.90
6.93
5.21
3.04
0.77
-1.35
-3.17
-4.72
-6.12
-7.54
-9.12
-10.91
-12.92
-15.06
-17.14
-18.97
-20.37
-21.29
-21.79
-22.05
-22.17
-22.07
-21.52
-20.15
-17.66
-13.97
-9.30
-4.10
1.03
5.54
8.97
11.08
11.89
11.70
11.05
10.58
10.87
12.21
14.56
17.53
20.65
23.47
25.80
27.60
28.93
29.80
30.11
29.73
28.55
26.63
24.18
21.53
18.98
16.72
14.82
13.20
11.74
10.34
8.99
7.73
6.63
5.74
5.04
4.45
3.87
3.18
2.31
1.23
-0.10
-1.66
-3.40
-5.18
-6.80
-8.11
-9.06
-9.76
-10.49
-11.57
-13.16
-15.19
-17.33
-19.04
-19.77
-19.11
-16.95
-13.47
-9.10
-4.39
0.09
3.87
6.73
8.58
9.54
9.72
9.26
8.22
6.71
4.89
3.01
1.38
0.22
-0.39
-0.58
-0.64
-0.86
-1.41
-2.34
-3.54
-4.84
-6.09
-7.23
-8.32
-9.49
-10.96
-12.82
-15.07
-17.57
-20.16
-22.68
-25.11
-27.54
-30.03
-32.59
-35.17
-37.65
-39.91
-41.79
-42.97
-42.95
-41.13
-36.97
-30.31
-21.52
-11.36
-0.89
8.98
17.64
24.83
30.54
34.86
37.87
39.59
40.08
39.48
38.05
36.11
34.03
32.06
30.34
28.86
27.50
26.14
24.68
23.12
21.49
19.84
18.18
16.47
14.63
12.63
10.46
8.21
6.02
4.02
2.26
0.75
-0.62
-1.99
-3.49
-5.22
-7.20
-9.34
-11.46
-13.29
-14.48
-14.72
-13.76
-11.59
-8.42
-4.68
-0.88
2.53
5.30
7.38
8.84
9.76
10.13
9.88
9.03
7.73
6.29
5.09
4.38
4.20
4.40
4.70
4.89
4.87
4.69
4.44
4.21
4.00
3.73
3.29
2.61
1.71
0.72
-0.24
-1.04
-1.71
-2.38
-3.19
-4.24
-5.50
-6.89
-8.28
-9.68
-11.09
-12.51
-13.80
-14.64
-14.65
-13.56
-11.33
-8.20
-4.60
-0.98
2.27
4.92
6.86
8.06
8.52
8.31
7.55
6.46
5.34
4.41
3.82
3.55
3.44
3.29
2.97
2.45
1.86
1.36
1.08
1.00
1.00
0.86
0.39
-0.47
-1.68
-3.07
-4.43
-5.58
-6.43
-7.00
-7.43
-7.93
-8.70
-9.90
-11.56
-13.55
-15.62
-17.38
-18.40
-18.30
-16.85
-14.06
-10.23
-5.83
-1.32
2.94
6.92
10.76
14.64
18.62
22.51
25.95
28.58
30.21
30.92
30.96
30.61
30.06
29.42
28.74
28.16
27.90
28.17
29.01
30.21
31.29
31.71
31.07
29.25
26.45
23.06
19.48
16.00
12.77
9.85
7.28
5.12
3.31
1.63
-0.38
-3.31
-7.59
-13.25
-19.77
-26.11
-31.10
-33.83
-34.04
-32.12
-29.02
-25.71
-22.98
-21.09
-19.91
-19.11
-18.37
-17.50
-16.43
-15.10
-13.39
-11.15
-8.31
-4.94
-1.31
2.19
5.19
7.46
8.95
9.76
10.10
10.17
10.14
10.16
10.26
10.43
10.53
10.37
9.74
8.47
6.54
4.06
1.29
-1.45
-3.93
-6.05
-7.92
-9.76
-11.82
-14.13
-16.52
-18.55
-19.70
-19.51
-17.64
-13.85
-7.98
-0.08
9.48
19.87
29.82
38.03
43.56
46.29
46.96
46.89
47.46
49.53
53.25
58.14
63.44
68.62
73.59
78.61
83.92
89.33
94.09
97.20
97.87
95.96
92.04
86.94
81.16
74.49
66.16
55.29
41.64
25.88
9.40
-6.36
-20.59
-33.36
-45.43
-57.55
-69.89
-81.80
-92.01
-99.25
-102.86
-103.08
-100.91
-97.64
-94.26
-91.17
-88.27
-85.25
-81.94
-78.42
-74.91
-71.57
-68.31
-64.81
-60.68
-55.73
-50.08
-44.14
-38.48
-33.58
-29.61
-26.51
-23.99
-21.74
-19.55
-17.40
-15.46
-13.97
-13.17
-13.16
-13.88
-15.09
-16.49
-17.82
-18.97
-20.05
-21.24
-22.74
-24.48
-26.12
-27.10
-26.81
-24.88
-21.28
-16.35
-10.70
-5.01
0.18
4.53
7.96
10.55
12.37
13.45
13.74
13.20
11.93
10.19
8.37
6.78
5.55
4.61
3.69
2.61
1.32
-0.03
-1.19
-2.03
-2.54
-2.93
-3.42
-4.16
-5.12
-6.15
-7.04
-7.64
-7.98
-8.19
-8.50
-9.08
-10.04
-11.40
-13.05
-14.87
-16.61
-17.94
-18.47
-17.86
-15.94
-12.82
-8.88
-4.62
-0.53
3.08
6.05
8.36
10.00
10.94
11.11
10.49
9.21
7.56
5.95
4.75
4.16
4.10
4.26
4.26
3.87
3.12
2.26
1.66
1.48
1.65
1.83
1.65
0.86
-0.52
-2.23
-3.94
-5.41
-6.61
-7.68
-8.89
-10.44
-12.41
-14.64
-16.82
-18.44
-19.04
-18.27
-16.08
-12.70
-8.59
-4.28
-0.17
3.51
6.71
9.44
11.70
13.42
14.49
14.85
14.54
13.71
12.58
11.37
10.22
9.20
8.32
7.60
7.09
6.82
6.75
6.76
6.62
6.11
5.07
3.55
1.75
-0.05
-1.66
-3.01
-4.17
-5.29
-6.47
-7.79
-9.25
-10.91
-12.87
-15.20
-17.79
-20.28
-22.05
-22.42
-20.91
-17.47
-12.53
-6.84
-1.26
3.60
7.41
10.18
12.05
13.26
13.96
14.27
14.27
13.99
13.49
12.78
11.94
11.02
10.13
9.33
8.63
8.03
7.55
7.21
7.06
7.00
6.85
6.38
5.38
3.85
2.01
0.16
-1.49
-2.92
-4.29
-5.86
-7.77
-10.05
-12.58
-15.17
-17.61
-19.61
-20.79
-20.78
-19.28
-16.27
-12.11
-7.31
-2.46
2.02
5.96
9.28
11.96
13.92
15.07
15.38
14.98
14.16
13.24
12.58
12.34
12.51
12.83
13.03
12.84
12.22
11.36
10.52
9.94
9.63
9.37
8.86
7.90
6.50
4.85
3.17
1.57
0.02
-1.60
-3.38
-5.34
-7.45
-9.74
-12.24
-14.97
-17.71
-20.06
-21.44
-21.34
-19.54
-16.22
-11.89
-7.17
-2.59
1.53
5.07
8.03
10.43
12.24
13.42
13.99
14.02
13.68
13.14
12.55
11.99
11.52
11.16
11.01
11.15
11.65
12.47
13.42
14.21
14.56
14.31
13.47
12.21
10.72
9.11
7.36
5.36
2.96
0.09
-3.25
-7.02
-11.11
-15.34
-19.36
-22.65
-24.62
-24.75
-22.88
-19.25
-14.46
-9.25
-4.26
0.18
4.00
7.30
10.11
12.33
13.78
14.29
13.92
12.94
11.76
10.72
9.97
9.42
8.87
8.15
7.27
6.39
5.68
5.22
4.90
4.44
3.62
2.35
0.79
-0.77
-2.04
-2.90
-3.43
-3.90
-4.62
-5.89
-7.88
-10.67
-14.15
-18.00
-21.65
-24.39
-25.54
-24.65
-21.71
-17.15
-11.68
-6.06
-0.90
3.47
6.93
9.51
11.28
12.33
12.77
12.75
12.43
11.97
11.47
10.99
10.54
10.15
9.83
9.63
9.52
9.47
9.32
8.91
8.09
6.80
5.11
3.20
1.31
-0.36
-1.72
-2.88
-4.07
-5.60
-7.74
-10.59
-14.07
-17.88
-21.53
-24.49
-26.20
-26.26
-24.51
-21.06
-16.29
-10.76
-5.04
0.39
5.27
9.46
12.94
15.65
17.51
18.47
18.58
18.03
17.08
16.00
14.96
13.99
13.03
12.03
11.04
10.17
9.60
9.37
9.36
9.27
8.76
7.57
5.63
3.14
0.43
-2.16
-4.41
-6.29
-7.99
-9.78
-11.96
-14.69
-17.93
-21.36
-24.44
-26.52
-27.01
-25.54
-22.12
-17.10
-11.13
-4.90
0.96
6.07
10.26
13.52
15.91
17.50
18.32
18.44
17.97
17.10
16.03
14.95
13.94
13.04
12.29
11.72
11.44
11.44
11.67
11.89
11.88
11.49
10.78
9.99
9.38
9.16
9.34
9.78
10.26
10.49
10.25
9.29
7.50
4.94
1.97
-0.78
-2.52
-2.56
-0.59
3.24
8.36
14.05
19.70
24.94
29.62
33.70
37.05
39.51
40.83
40.93
39.88
37.96
35.57
33.04
30.59
28.24
25.94
23.62
21.27
18.97
16.84
14.94
13.20
11.42
9.37
6.91
4.05
0.99
-1.97
-4.62
-6.96
-9.27
-12.08
-15.95
-21.21
-27.80
-35.10
-42.19
-48.02
-51.81
-53.22
-52.38
-49.81
-46.14
-42.00
-37.85
-34.02
-30.73
-28.13
-26.33
-25.35
-25.12
-25.41
-25.88
-26.19
-26.10
-25.54
-24.66
-23.70
-22.83
-22.07
-21.28
-20.32
-19.12
-17.82
-16.65
-15.81
-15.39
-15.30
-15.34
-15.32
-15.20
-15.10
-15.23
-15.79
-16.85
-18.29
-19.75
-20.71
-20.57
-18.86
-15.32
-10.04
-3.41
3.94
11.36
18.25
24.26
29.23
33.20
36.24
38.37
39.53
39.70
38.92
37.47
35.69
33.97
32.49
31.23
29.96
28.49
26.75
24.82
22.89
21.03
19.15
17.04
14.48
11.39
7.84
4.03
0.17
-3.59
-7.14
-10.39
-13.31
-15.92
-18.39
-20.97
-23.88
-27.14
-30.40
-33.04
-34.31
-33.67
-30.93
-26.37
-20.60
-14.35
-8.26
-2.80
1.81
5.50
8.31
10.30
11.61
12.35
12.67
12.68
12.46
12.07
11.56
11.01
10.52
10.20
10.10
10.18
10.35
10.39
10.10
9.33
8.06
6.38
4.47
2.53
0.65
-1.18
-3.09
-5.25
-7.83
-10.87
-14.29
-17.83
-21.12
-23.70
-25.13
-25.08
-23.43
-20.28
-15.98
-10.93
-5.55
-0.15
5.05
9.84
13.95
17.14
19.19
20.09
19.99
19.22
18.13
17.03
16.06
15.26
14.61
14.03
13.45
12.82
12.13
11.39
10.64
9.83
8.88
7.61
5.88
3.67
1.11
-1.61
-4.27
-6.77
-9.11
-11.44
-13.93
-16.74
-19.91
-23.30
-26.55
-29.11
-30.33
-29.70
-27.01
-22.48
-16.66
-10.25
-3.94
1.81
6.75
10.77
13.91
16.26
17.93
19.06
19.74
19.99
19.82
19.28
18.50
17.72
17.24
17.28
17.90
18.92
20.07
21.02
21.52
21.52
21.10
20.41
19.59
18.70
17.69
16.42
14.68
12.27
9.08
5.11
0.56
-4.24
-8.84
-12.70
-15.34
-16.34
-15.47
-12.77
-8.55
-3.45
1.75
6.33
9.85
12.17
13.47
13.97
13.84
13.06
11.60
9.46
6.87
4.15
1.60
-0.62
-2.56
-4.43
-6.43
-8.60
-10.85
-12.98
-14.82
-16.37
-17.78
-19.28
-21.04
-23.05
-25.10
-26.78
-27.68
-27.45
-25.95
-23.31
-19.91
-16.30
-13.05
-10.56
-8.93
-7.88
-6.90
-5.42
-3.04
0.30
4.35
8.64
12.69
16.14
18.82
20.66
21.65
21.86
21.39
20.42
19.15
17.78
16.40
15.06
13.71
12.34
10.96
9.63
8.41
7.32
6.29
5.16
3.82
2.16
0.22
-1.86
-3.90
-5.77
-7.39
-8.84
-10.32
-12.13
-14.54
-17.66
-21.32
-25.08
-28.29
-30.34
-30.78
-29.54
-26.83
-23.16
-19.11
-15.16
-11.62
-8.60
-6.06
-3.93
-2.15
-0.69
0.48
1.39
2.10
2.62
2.95
3.07
3.00
2.82
2.72
2.86
3.28
3.85
4.29
4.34
3.87
2.93
1.69
0.36
-0.92
-2.11
-3.23
-4.30
-5.37
-6.48
-7.75
-9.29
-11.21
-13.48
-15.90
-18.06
-19.44
-19.56
-18.12
-15.14
-10.99
-6.25
-1.59
2.47
5.62
7.76
8.94
9.31
9.01
8.24
7.22
6.20
5.35
4.81
4.57
4.56
4.68
4.81
4.89
4.86
4.72
4.48
4.16
3.78
3.33
2.77
2.04
1.07
-0.16
-1.64
-3.31
-5.11
-7.02
-9.07
-11.29
-13.70
-16.13
-18.27
-19.67
-19.87
-18.63
-16.03
-12.49
-8.58
-4.83
-1.54
1.22
3.52
5.45
6.94
7.87
8.15
7.80
6.97
5.89
4.78
3.83
3.16
2.88
3.09
3.78
4.80
5.85
6.55
6.58
5.83
4.38
2.53
0.57
-1.24
-2.78
-4.06
-5.21
-6.37
-7.71
-9.38
-11.47
-14.01
-16.84
-19.58
-21.72
-22.72
-22.20
-20.05
-16.52
-12.04
-7.16
-2.38
1.97
5.59
8.31
10.02
10.75
10.67
10.09
9.38
8.86
8.69
8.86
9.21
9.52
9.53
9.08
8.12
6.79
5.31
3.97
2.92
2.17
1.60
1.04
0.38
-0.41
-1.42
-2.70
-4.37
-6.46
-8.96
-11.76
-14.70
-17.65
-20.41
-22.71
-24.15
-24.29
-22.86
-19.86
-15.64
-10.75
-5.77
-1.14
2.92
6.30
8.97
10.93
12.23
12.95
13.21
13.09
12.67
12.02
11.23
10.41
9.69
9.18
8.88
8.78
8.80
8.85
8.78
8.38
7.49
6.04
4.16
2.16
0.41
-0.80
-1.43
-1.66
-1.83
-2.24
-3.16
-4.73
-7.00
-9.90
-13.21
-16.49
-19.12
-20.47
-20.09
-17.84
-14.01
-9.17
-4.06
0.67
4.66
7.82
10.27
12.21
13.75
14.85
15.47
15.59
15.34
14.99
14.71
14.59
14.49
14.19
13.52
12.52
11.44
10.61
10.27
10.48
11.01
11.53
11.63
11.00
9.52
7.28
4.53
1.64
-1.08
-3.42
-5.31
-6.86
-8.28
-9.85
-11.82
-14.31
-17.24
-20.20
-22.64
-23.92
-23.59
-21.56
-18.07
-13.64
-8.84
-4.15
0.09
3.70
6.59
8.73
10.18
11.08
11.62
11.98
12.29
12.62
12.98
13.37
13.73
13.95
13.92
13.56
12.88
12.03
11.21
10.56
10.08
9.62
8.92
7.81
6.21
4.18
1.88
-0.52
-2.88
-5.12
-7.21
-9.17
-11.08
-13.07
-15.29
-17.87
-20.87
-24.16
-27.38
-29.98
-31.33
-30.89
-28.49
-24.40
-19.27
-13.90
-8.93
-4.70
-1.20
1.71
4.10
5.88
6.89
7.04
6.53
5.80
5.33
5.48
6.24
7.37
8.43
9.14
9.43
9.48
9.48
9.59
9.78
9.92
9.85
9.47
8.76
7.76
6.48
4.94
3.18
1.25
-0.76
-2.73
-4.59
-6.29
-7.85
-9.30
-10.75
-12.33
-14.15
-16.24
-18.42
-20.35
-21.54
-21.56
-20.18
-17.51
-13.94
-9.94
-5.97
-2.28
1.02
3.89
6.27
8.03
9.06
9.28
8.82
7.93
6.93
6.10
5.59
5.37
5.33
5.36
5.40
5.49
5.72
6.11
6.60
7.06
7.31
7.22
6.70
5.77
4.49
2.98
1.40
-0.09
-1.40
-2.50
-3.44
-4.36
-5.40
-6.68
-8.24
-10.02
-11.77
-13.15
-13.72
-13.11
-11.19
-8.06
-4.14
0.02
3.87
7.07
9.51
11.26
12.46
13.20
13.48
13.25
12.49
11.28
9.84
8.49
7.49
6.98
6.94
7.20
7.56
7.86
8.02
8.02
7.89
7.59
7.13
6.49
5.67
4.71
3.65
2.49
1.23
-0.18
-1.74
-3.41
-5.12
-6.81
-8.45
-10.04
-11.56
-12.86
-13.78
-14.05
-13.45
-11.86
-9.29
-5.89
-1.91
2.29
6.33
9.80
12.41
14.00
14.61
14.46
13.88
13.19
12.61
12.26
12.11
12.07
12.04
11.92
11.70
11.44
11.24
11.21
11.40
11.73
12.03
12.07
11.62
10.60
9.08
7.26
5.40
3.73
2.30
1.06
-0.19
-1.67
-3.54
-5.85
-8.52
-11.34
-13.98
-16.05
-17.21
-17.20
-15.98
-13.69
-10.62
-7.15
-3.61
-0.24
2.84
5.58
7.98
9.96
11.41
12.19
12.25
11.70
10.81
9.92
9.29
9.00
8.94
8.88
8.64
8.20
7.63
7.08
6.58
6.04
5.29
4.15
2.56
0.61
-1.45
-3.39
-5.04
-6.40
-7.61
-8.89
-10.48
-12.51
-14.96
-17.67
-20.31
-22.44
-23.59
-23.39
-21.69
-18.62
-14.52
-9.89
-5.17
-0.76
3.09
6.23
8.55
10.03
10.73
10.81
10.55
10.19
9.93
9.83
9.86
9.89
9.86
9.72
9.50
9.25
9.00
8.76
8.48
8.11
7.60
6.92
6.07
5.02
3.76
2.29
0.63
-1.19
-3.13
-5.20
-7.49
-10.10
-13.03
-16.08
-18.81
-20.64
-21.09
-19.93
-17.29
-13.59
-9.29
-4.78
-0.25
4.21
8.47
12.27
15.28
17.22
18.05
17.94
17.25
16.32
15.36
14.37
13.22
11.75
9.95
7.95
5.98
4.25
2.81
1.59
0.44
-0.82
-2.29
-3.99
-5.86
-7.84
-9.81
-11.71
-13.51
-15.29
-17.19
-19.40
-22.07
-25.12
-28.22
-30.74
-31.96
-31.34
-28.63
-24.05
-18.11
-11.52
-4.95
1.05
6.09
9.98
12.63
14.12
14.69
14.70
14.53
14.53
14.87
15.62
16.67
17.90
19.14
20.27
21.14
21.64
21.69
21.22
20.26
18.86
17.15
15.28
13.45
11.85
10.63
9.85
9.37
8.86
7.81
5.74
2.39
-2.13
-7.22
-12.01
-15.58
-17.30
-16.96
-14.81
-11.32
-7.00
-2.24
2.72
7.66
12.30
16.25
19.12
20.65
20.83
19.93
18.40
16.71
15.23
14.11
13.29
12.61
11.85
10.91
9.78
8.55
7.42
6.48
5.75
5.10
4.29
3.11
1.41
-0.78
-3.31
-5.96
-8.57
-11.03
-13.31
-15.43
-17.48
-19.58
-21.89
-24.58
-27.77
-31.32
-34.85
-37.69
-39.14
-38.64
-35.99
-31.47
-25.63
-19.18
-12.70
-6.58
-1.01
3.89
8.01
11.20
13.37
14.57
15.07
15.26
15.56
16.22
17.24
18.44
19.57
20.44
21.00
21.29
21.35
21.17
20.62
19.56
17.95
15.88
13.55
11.22
9.05
7.15
5.47
3.95
2.47
0.93
-0.78
-2.79
-5.20
-8.09
-11.40
-14.85
-17.99
-20.23
-21.05
-20.13
-17.48
-13.47
-8.65
-3.64
1.09
5.28
8.85
11.76
13.96
15.33
15.76
15.29
14.13
12.67
11.35
10.54
10.35
10.66
11.22
11.71
11.97
11.98
11.86
11.73
11.61
11.39
10.87
9.84
8.23
6.11
3.68
1.18
-1.19
-3.34
-5.24
-6.97
-8.62
-10.31
-12.18
-14.41
-17.08
-20.17
-23.42
-26.37
-28.47
-29.21
-28.31
-25.78
-21.91
-17.19
-12.16
-7.32
-3.01
0.60
3.48
5.75
7.54
8.96
10.09
10.91
11.43
11.68
11.74
11.78
11.91
12.19
12.58
12.93
13.13
13.10
12.87
12.51
12.11
11.66
11.10
10.29
9.13
7.55
5.61
3.41
1.07
-1.32
-3.70
-6.09
-8.51
-11.06
-13.80
-16.72
-19.70
-22.45
-24.55
-25.63
-25.44
-23.96
-21.41
-18.10
-14.38
-10.50
-6.66
-3.06
0.06
2.47
4.06
4.84
5.01
4.85
4.62
4.50
4.59
4.91
5.49
6.29
7.28
8.30
9.21
9.87
10.20
10.23
9.96
9.41
8.59
7.47
6.09
4.54
2.95
1.39
-0.16
-1.80
-3.73
-6.11
-9.01
-12.36
-15.91
-19.21
-21.73
-22.93
-22.52
-20.47
-17.14
-13.08
-8.90
-5.03
-1.65
1.24
3.76
5.98
7.87
9.29
10.15
10.45
10.34
10.09
9.93
10.03
10.35
10.73
10.96
10.93
10.66
10.28
9.93
9.60
9.21
8.58
7.57
6.17
4.44
2.53
0.54
-1.45
-3.43
-5.43
-7.54
-9.87
-12.53
-15.55
-18.86
-22.19
-25.19
-27.41
-28.49
-28.21
-26.54
-23.68
-19.99
-15.89
-11.80
-8.00
-4.63
-1.71
0.80
2.89
4.50
5.55
6.04
6.07
5.90
5.79
5.96
6.44
7.16
7.97
8.71
9.33
9.79
10.05
10.04
9.64
8.76
7.43
5.80
4.06
2.41
0.87
-0.66
-2.37
-4.46
-6.99
-9.96
-13.28
-16.83
-20.43
-23.80
-26.53
-28.14
-28.25
-26.75
-23.82
-19.91
-15.53
-11.07
-6.72
-2.54
1.43
5.02
8.01
10.17
11.41
11.87
11.85
11.73
11.79
12.13
12.66
13.18
13.50
13.55
13.38
13.14
12.95
12.82
12.63
12.13
11.09
9.36
6.99
4.17
1.21
-1.63
-4.20
-6.53
-8.80
-11.25
-14.09
-17.40
-21.07
-24.82
-28.21
-30.74
-31.94
-31.50
-29.31
-25.58
-20.75
-15.36
-9.94
-4.81
-0.09
4.29
8.42
12.28
15.73
18.53
20.48
21.55
21.92
21.86
21.71
21.66
21.80
22.07
22.37
22.61
22.69
22.54
22.09
21.31
20.21
18.86
17.30
15.57
13.66
11.56
9.27
6.83
4.29
1.73
-0.79
-3.26
-5.68
-8.09
-10.58
-13.26
-16.23
-19.46
-22.70
-25.46
-27.13
-27.18
-25.33
-21.67
-16.63
-10.82
-4.85
0.82
5.94
10.36
14.06
16.97
19.03
20.21
20.54
20.18
19.36
18.41
17.58
17.07
16.90
16.98
17.13
17.18
16.99
16.58
16.01
15.35
14.64
13.77
12.53
10.72
8.17
4.91
1.11
-2.92
-6.86
-10.46
-13.64
-16.51
-19.32
-22.38
-25.96
-30.15
-34.90
-40.02
-45.08
-49.56
-52.80
-54.18
-53.28
-50.01
-44.64
-37.68
-29.76
-21.35
-12.83
-4.43
3.59
10.93
17.30
22.48
26.41
29.19
31.02
32.07
32.53
32.56
32.30
31.87
31.29
30.50
29.44
28.06
26.44
24.70
23.00
21.40
19.84
18.18
16.28
14.07
11.61
9.02
6.43
3.92
1.52
-0.79
-3.02
-5.18
-7.26
-9.28
-11.30
-13.41
-15.63
-17.84
-19.69
-20.71
-20.46
-18.72
-15.61
-11.55
-7.09
-2.68
1.38
4.95
7.93
10.15
11.44
11.65
10.90
9.48
7.85
6.42
5.42
4.87
4.59
4.45
4.32
4.23
4.20
4.31
4.56
4.88
5.15
5.19
4.87
4.08
2.85
1.28
-0.46
-2.18
-3.78
-5.25
-6.63
-7.98
-9.37
-10.88
-12.61
-14.60
-16.81
-18.92
-20.46
-20.86
-19.70
-16.96
-12.97
-8.37
-3.82
0.22
3.53
6.13
8.11
9.54
10.46
10.91
10.97
10.75
10.32
9.72
8.90
7.86
6.67
5.49
4.55
3.99
3.84
3.93
4.02
3.84
3.29
2.36
1.20
-0.05
-1.27
-2.47
-3.70
-5.03
-6.50
-8.16
-10.01
-12.08
-14.35
-16.75
-19.05
-20.89
-21.83
-21.53
-19.86
-16.95
-13.15
-8.91
-4.65
-0.68
2.83
5.76
8.00
9.45
10.07
9.89
9.12
8.07
7.05
6.28
5.82
5.60
5.49
5.43
5.44
5.55
5.82
6.19
6.52
6.63
6.35
5.56
4.21
2.38
0.24
-1.96
-3.96
-5.60
-6.89
-8.08
-9.55
-11.66
-14.52
-17.87
-21.05
-23.20
-23.62
-21.98
-18.50
-13.82
-8.74
-3.88
0.43
4.16
7.37
10.07
12.13
13.39
13.81
13.57
12.98
12.35
11.84
11.42
10.94
10.25
9.35
8.39
7.59
7.09
6.88
6.78
6.53
5.94
4.94
3.64
2.22
0.86
-0.43
-1.74
-3.25
-5.09
-7.35
-9.98
-12.90
-15.95
-18.89
-21.36
-22.94
-23.18
-21.78
-18.68
-14.17
-8.82
-3.29
1.80
6.08
9.42
11.88
13.55
14.47
14.65
14.13
13.07
11.81
10.73
10.09
9.94
10.03
10.03
9.68
9.00
8.21
7.66
7.56
7.83
8.12
7.95
6.95
5.04
2.47
-0.30
-2.78
-4.69
-6.03
-7.05
-8.14
-9.65
-11.78
-14.46
-17.37
-20.02
-21.79
-22.15
-20.78
-17.69
-13.23
-8.01
-2.67
2.23
6.38
9.66
12.05
13.62
14.41
14.48
13.93
12.91
11.64
10.38
9.35
8.70
8.44
8.50
8.71
8.92
9.01
8.97
8.81
8.53
8.11
7.48
6.58
5.37
3.87
2.16
0.37
-1.40
-3.05
-4.57
-5.97
-7.36
-8.85
-10.56
-12.57
-14.90
-17.43
-19.91
-21.91
-22.90
-22.39
-20.10
-16.10
-10.88
-5.22
0.11
4.50
7.72
9.81
10.98
11.47
11.40
10.87
9.99
8.95
7.99
7.30
6.94
6.82
6.75
6.57
6.23
5.84
5.57
5.55
5.75
5.99
5.95
5.40
4.26
2.67
0.92
-0.68
-2.01
-3.11
-4.17
-5.38
-6.85
-8.53
-10.36
-12.30
-14.39
-16.69
-19.05
-21.11
-22.27
-21.95
-19.85
-16.08
-11.21
-6.00
-1.15
2.95
6.20
8.71
10.61
11.91
12.52
12.36
11.48
10.13
8.68
7.51
6.89
6.85
7.25
7.81
8.26
8.45
8.33
7.99
7.51
6.96
6.35
5.59
4.59
3.26
1.57
-0.42
-2.58
-4.71
-6.64
-8.25
-9.57
-10.75
-12.04
-13.65
-15.69
-18.13
-20.71
-23.03
-24.58
-24.87
-23.59
-20.69
-16.47
-11.43
-6.18
-1.17
3.30
7.14
10.33
12.83
14.53
15.30
15.09
14.06
12.53
10.95
9.71
9.04
8.94
9.20
9.51
9.63
9.41
8.90
8.22
7.57
7.05
6.72
6.45
6.06
5.31
4.01
2.09
-0.28
-2.83
-5.22
-7.21
-8.77
-10.03
-11.24
-12.67
-14.45
-16.62
-19.12
-21.81
-24.44
-26.61
-27.80
-27.53
-25.49
-21.74
-16.69
-11.01
-5.39
-0.34
3.90
7.37
10.13
12.22
13.57
14.07
13.72
12.73
11.50
10.45
9.88
9.84
10.17
10.62
11.00
11.27
11.45
11.59
11.61
11.38
10.80
9.84
8.65
7.38
6.13
4.87
3.49
1.86
-0.04
-2.13
-4.27
-6.30
-8.17
-9.91
-11.62
-13.45
-15.58
-18.11
-21.01
-24.05
-26.72
-28.39
-28.45
-26.53
-22.69
-17.38
-11.33
-5.28
0.18
4.70
8.14
10.51
11.85
12.28
12.00
11.29
10.53
10.04
10.04
10.54
11.32
12.09
12.60
12.73
12.50
12.02
11.35
10.51
9.51
8.38
7.20
6.09
5.07
4.06
2.86
1.25
-0.86
-3.42
-6.21
-8.99
-11.53
-13.71
-15.49
-16.95
-18.31
-19.86
-22.00
-25.05
-29.10
-33.84
-38.53
-42.12
-43.65
-42.51
-38.73
-32.92
-26.05
-19.12
-12.87
-7.73
-3.87
-1.29
0.08
0.35
-0.28
-1.53
-3.05
-4.41
-5.19
-4.95
-3.39
-0.29
4.30
10.02
16.26
22.30
27.67
32.25
36.28
40.07
43.78
47.21
49.82
50.87
49.74
46.31
40.87
33.95
26.06
17.61
8.93
0.36
-7.69
-14.83
-20.36
-23.93
-25.87
-27.19
-29.09
-32.21
-36.33
-40.44
-43.27
-43.02
-38.69
-30.72
-20.90
-11.53
-4.28
0.21
2.15
2.18
2.27
4.03
7.83
12.60
16.78
19.69
22.01
25.43
31.96
44.92
66.63
97.17
134.03
173.14
210.40
242.21
265.53
267.46
239.64
183.83
113.14
44.15
-11.90
-51.42
-76.29
-90.52
-98.06
-100.04
-96.64
-88.77
-78.87
-70.29
-65.43
-64.84
-67.02
-69.21
-67.27
-58.18
-42.32
-21.96
-1.14
16.49
28.68
34.94
35.97
33.73
30.05
25.90
21.46
16.41
10.95
5.68
1.60
-0.39
0.43
4.11
9.67
15.52
19.73
22.27
22.99
22.14
20.05
16.85
12.28
5.82
-2.82
-13.48
-25.30
-37.28
-48.56
-58.79
-68.22
-77.32
-86.28
-94.64
-101.42
-105.40
-105.83
-102.55
-96.14
-87.73
-78.59
-69.75
-61.86
-55.20
-49.69
-45.06
-40.69
-35.69
-29.17
-20.57
-9.99
1.76
13.35
23.45
31.06
35.86
38.04
38.11
36.56
33.86
30.40
26.70
23.33
20.84
19.59
19.65
20.84
22.79
25.10
27.43
29.56
31.34
32.66
33.41
33.48
32.80
31.40
29.41
27.05
24.53
21.96
19.34
16.56
13.53
10.30
7.03
3.93
1.16
-1.33
-3.79
-6.56
-9.99
-14.25
-19.24
-24.55
-29.41
-32.85
-33.96
-32.15
-27.42
-20.41
-12.23
-4.07
3.13
8.90
13.17
16.07
17.74
18.21
17.50
15.73
13.16
10.23
7.41
5.04
3.31
2.22
1.65
1.40
1.28
1.19
1.07
0.95
0.82
0.60
0.13
-0.82
-2.38
-4.54
-7.11
-9.83
-12.46
-14.91
-17.21
-19.49
-21.88
-24.53
-27.55
-30.98
-34.65
-38.12
-40.62
-41.28
-39.35
-34.56
-27.26
-18.32
-8.87
0.07
7.80
13.97
18.53
21.48
22.87
22.80
21.52
19.42
17.04
14.83
13.05
11.75
10.78
9.94
9.16
8.48
8.02
7.80
7.72
7.51
6.86
5.49
3.29
0.38
-3.00
-6.55
-10.06
-13.39
-16.59
-19.77
-23.16
-27.03
-31.67
-37.20
-43.42
-49.65
-54.72
-57.30
-56.31
-51.37
-43.00
-32.44
-21.22
-10.66
-1.53
5.88
11.60
15.70
18.22
19.20
18.80
17.37
15.38
13.30
11.48
10.13
9.31
8.97
9.04
9.41
9.92
10.45
10.79
10.74
10.02
8.41
5.79
2.21
-2.04
-6.53
-10.89
-14.91
-18.65
-22.43
-26.70
-31.84
-37.92
-44.55
-50.77
-55.29
-56.78
-54.26
-47.47
-36.95
-23.93
-9.94
3.52
15.29
24.68
31.40
35.53
37.35
37.31
35.96
33.86
31.47
29.17
27.21
25.74
24.78
24.30
24.18
24.27
24.40
24.34
23.81
22.52
20.27
16.96
12.69
7.75
2.56
-2.45
-7.02
-11.10
-14.92
-18.95
-23.72
-29.64
-36.71
-44.34
-51.28
-55.93
-56.74
-52.78
-44.06
-31.61
-17.11
-2.40
10.99
22.18
30.83
37.03
40.96
42.78
42.67
40.91
37.99
34.65
31.66
29.60
28.65
28.56
28.79
28.78
28.23
27.17
25.84
24.48
23.08
21.42
19.07
15.73
11.33
6.13
0.62
-4.64
-9.31
-13.33
-17.00
-20.87
-25.50
-31.23
-37.96
-45.00
-51.16
-55.00
-55.22
-51.06
-42.55
-30.56
-16.53
-2.09
11.37
22.97
32.25
39.08
43.44
45.32
44.82
42.29
38.47
34.32
30.87
28.80
28.24
28.78
29.68
30.26
30.15
29.37
28.22
27.00
25.76
24.22
21.95
18.55
13.91
8.35
2.46
-3.10
-7.84
-11.66
-14.85
-17.93
-21.52
-26.10
-31.91
-38.75
-45.99
-52.49
-56.88
-57.79
-54.34
-46.49
-35.08
-21.65
-7.90
4.82
15.76
24.73
31.80
36.99
40.10
40.92
39.43
36.06
31.72
27.52
24.40
22.79
22.55
23.09
23.75
24.03
23.81
23.26
22.58
21.81
20.72
18.91
16.00
11.90
6.88
1.51
-3.65
-8.24
-12.32
-16.20
-20.30
-24.99
-30.41
-36.51
-43.02
-49.40
-54.79
-58.00
-57.78
-53.17
-43.97
-30.98
-15.82
-0.44
13.43
24.75
33.18
38.86
42.08
43.05
41.97
39.18
35.33
31.29
27.94
25.81
24.95
24.94
25.16
25.09
24.55
23.65
22.64
21.66
20.56
18.96
16.39
12.61
7.70
2.12
-3.46
-8.47
-12.63
-16.04
-19.13
-22.44
-26.46
-31.50
-37.63
-44.58
-51.72
-57.94
-61.82
-61.94
-57.35
-47.97
-34.74
-19.38
-3.84
10.29
22.08
31.27
37.97
42.33
44.38
44.16
41.88
38.14
33.88
30.11
27.54
26.42
26.42
26.87
27.10
26.67
25.55
24.04
22.57
21.36
20.29
18.89
16.53
12.76
7.55
1.35
-5.05
-10.84
-15.51
-18.99
-21.64
-24.06
-26.91
-30.78
-36.07
-42.81
-50.47
-57.84
-63.19
-64.71
-61.12
-52.20
-38.93
-23.15
-6.99
7.77
20.12
29.74
36.73
41.30
43.57
43.64
41.75
38.47
34.65
31.18
28.75
27.58
27.41
27.72
27.94
27.69
26.89
25.67
24.22
22.68
21.05
19.19
16.96
14.18
10.76
6.70
2.10
-2.85
-7.89
-12.74
-17.15
-20.98
-24.24
-27.16
-30.17
-33.80
-38.53
-44.45
-51.07
-57.23
-61.36
-61.88
-57.76
-48.92
-36.28
-21.48
-6.34
7.56
19.27
28.36
34.83
38.80
40.42
39.85
37.38
33.59
29.27
25.34
22.54
21.23
21.26
22.09
23.02
23.50
23.30
22.52
21.42
20.21
18.90
17.31
15.16
12.22
8.39
3.75
-1.44
-6.83
-12.04
-16.74
-20.78
-24.21
-27.20
-30.09
-33.28
-37.19
-42.12
-48.11
-54.67
-60.77
-64.91
-65.56
-61.63
-52.95
-40.38
-25.55
-10.40
3.43
14.90
23.67
29.87
33.77
35.62
35.54
33.71
30.56
26.84
23.44
21.17
20.35
20.74
21.63
22.26
22.16
21.33
20.13
18.98
18.02
17.00
15.42
12.79
8.86
3.76
-2.10
-8.13
-13.82
-18.83
-23.01
-26.47
-29.47
-32.37
-35.61
-39.68
-44.93
-51.36
-58.29
-64.32
-67.53
-66.11
-59.05
-46.59
-30.29
-12.41
4.75
19.56
31.21
39.64
45.11
47.92
48.37
46.80
43.78
40.06
36.47
33.70
32.08
31.59
31.84
32.32
32.53
32.24
31.41
30.26
29.01
27.77
26.46
24.80
22.42
19.02
14.43
8.76
2.37
-4.18
-10.32
-15.62
-19.98
-23.57
-26.80
-30.19
-34.22
-39.25
-45.34
-52.12
-58.63
-63.35
-64.53
-60.71
-51.34
-37.10
-19.79
-1.72
14.90
28.58
38.62
44.99
47.99
48.09
45.85
42.04
37.57
33.41
30.31
28.68
28.50
29.39
30.77
32.06
32.85
32.95
32.36
31.18
29.54
27.49
25.01
22.07
18.70
14.96
10.90
6.51
1.74
-3.40
-8.77
-14.03
-18.79
-22.77
-25.91
-28.38
-30.51
-32.67
-35.25
-38.60
-42.81
-47.52
-51.81
-54.16
-52.97
-47.10
-36.46
-22.15
-6.18
9.19
22.12
31.55
37.31
39.80
39.65
37.52
33.97
29.49
24.61
19.86
15.75
12.66
10.78
10.03
10.18
10.92
11.95
13.06
14.10
14.91
15.33
15.20
14.41
12.97
10.99
8.62
5.95
3.04
-0.10
-3.41
-6.71
-9.78
-12.36
-14.31
-15.69
-16.72
-17.84
-19.50
-22.08
-25.74
-30.31
-35.15
-39.20
-41.24
-40.15
-35.35
-27.03
-16.17
-4.26
7.11
16.73
24.00
28.84
31.49
32.19
31.11
28.41
24.41
19.64
14.86
10.80
7.97
6.50
6.16
6.50
7.04
7.40
7.39
7.01
6.37
5.59
4.71
3.61
2.06
-0.20
-3.27
-7.02
-11.08
-15.02
-18.50
-21.40
-23.85
-26.09
-28.44
-31.17
-34.54
-38.63
-43.29
-47.87
-51.28
-52.19
-49.44
-42.51
-31.81
-18.60
-4.55
8.72
20.06
28.87
34.95
38.32
39.08
37.44
33.79
28.83
23.43
18.46
14.56
12.00
10.60
9.95
9.57
9.19
8.79
8.56
8.65
9.06
9.46
9.35
8.20
5.75
2.11
-2.24
-6.72
-10.81
-14.30
-17.28
-20.07
-23.09
-26.74
-31.34
-37.05
-43.71
-50.68
-56.80
-60.56
-60.49
-55.71
-46.27
-33.25
-18.38
-3.55
9.75
20.63
28.76
34.12
36.79
36.89
34.68
30.70
25.77
20.88
16.86
14.13
12.63
11.90
11.35
10.60
9.64
8.74
8.25
8.29
8.63
8.68
7.76
5.37
1.49
-3.43
-8.64
-13.43
-17.40
-20.61
-23.53
-26.80
-31.01
-36.48
-43.13
-50.38
-57.14
-62.00
-63.46
-60.46
-52.76
-41.09
-27.01
-12.43
0.90
11.87
20.04
25.55
28.79
30.13
29.88
28.32
25.80
22.81
19.93
17.67
16.38
16.07
16.49
17.25
18.00
18.58
18.99
19.24
19.22
18.65
17.14
14.43
10.47
5.55
0.17
-5.17
-10.09
-14.51
-18.63
-22.91
-27.90
-34.13
-41.73
-50.20
-58.30
-64.23
-66.09
-62.60
-53.55
-40.00
-23.88
-7.39
7.64
20.13
29.64
36.19
39.92
40.99
39.61
36.25
31.67
26.81
22.57
19.52
17.73
16.85
16.32
15.71
14.90
14.11
13.66
13.67
13.87
13.59
12.06
8.80
3.86
-2.17
-8.41
-14.09
-18.86
-22.89
-26.74
-31.14
-36.73
-43.79
-52.08
-60.76
-68.38
-73.19
-73.52
-68.35
-57.75
-42.90
-25.76
-8.51
7.12
20.10
30.12
37.18
41.40
42.84
41.65
38.32
33.77
29.22
25.76
24.06
24.12
25.32
26.83
27.97
28.43
28.35
28.02
27.59
26.88
25.43
22.69
18.38
12.68
6.15
-0.44
-6.47
-11.70
-16.29
-20.68
-25.44
-31.09
-37.91
-45.83
-54.19
-61.68
-66.48
-66.77
-61.31
-50.05
-34.23
-16.05
2.04
18.09
30.98
40.45
46.72
50.14
51.00
49.64
46.59
42.70
38.99
36.40
35.43
36.04
37.69
39.60
41.10
41.86
41.93
41.57
41.01
40.22
38.85
36.38
32.33
26.60
19.52
11.80
4.30
-2.30
-7.75
-12.25
-16.31
-20.46
-25.08
-30.35
-36.30
-42.79
-49.49
-55.60
-59.89
-60.84
-57.19
-48.45
-35.23
-19.14
-2.26
13.43
26.61
36.70
43.67
47.73
49.15
48.18
45.24
40.99
36.27
32.02
28.95
27.46
27.46
28.48
29.80
30.73
30.79
29.80
27.90
25.38
22.50
19.37
15.88
11.82
7.01
1.47
-4.56
-10.60
-16.17
-20.87
-24.57
-27.40
-29.68
-31.81
-34.19
-37.19
-41.11
-46.08
-51.87
-57.68
-62.14
-63.63
-60.79
-53.12
-41.23
-26.72
-11.62
2.26
13.74
22.39
28.23
31.49
32.41
31.23
28.39
24.59
20.71
17.63
15.88
15.59
16.45
17.89
19.40
20.65
21.59
22.34
22.99
23.52
23.73
23.44
22.46
20.74
18.31
15.25
11.66
7.66
3.42
-0.82
-4.83
-8.42
-11.55
-14.27
-16.75
-19.26
-22.12
-25.72
-30.28
-35.65
-41.03
-45.01
-45.92
-42.44
-34.18
-21.90
-7.29
7.60
21.05
32.08
40.36
46.02
49.26
50.24
49.14
46.32
42.35
37.98
33.89
30.58
28.26
26.93
26.37
26.31
26.42
26.41
26.06
25.26
24.05
22.46
20.54
18.23
15.42
12.03
8.09
3.76
-0.68
-4.98
-8.97
-12.62
-16.01
-19.29
-22.58
-25.96
-29.49
-33.28
-37.53
-42.39
-47.77
-53.12
-57.33
-58.98
-56.82
-50.29
-39.85
-26.87
-13.17
-0.44
10.29
18.63
24.66
28.59
30.51
30.47
28.59
25.33
21.40
17.63
14.74
13.10
12.65
13.00
13.60
13.99
13.92
13.40
12.60
11.73
10.83
9.76
8.27
6.07
3.05
-0.71
-4.91
-9.18
-13.23
-16.89
-20.22
-23.37
-26.56
-30.00
-33.88
-38.38
-43.59
-49.29
-54.82
-58.99
-60.34
-57.67
-50.54
-39.54
-26.13
-12.17
0.75
11.67
20.30
26.77
31.24
33.74
34.23
32.81
29.92
26.30
22.81
20.18
18.77
18.49
18.93
19.52
19.79
19.48
18.66
17.57
16.48
15.47
14.38
12.81
10.33
6.71
2.04
-3.25
-8.58
-13.46
-17.63
-21.17
-24.39
-27.67
-31.38
-35.79
-41.04
-47.04
-53.33
-59.00
-62.77
-63.27
-59.53
-51.37
-39.51
-25.41
-10.81
2.79
14.42
23.71
30.67
35.46
38.19
38.95
37.90
35.41
32.07
28.61
25.75
23.92
23.22
23.41
23.98
24.44
24.47
23.95
22.99
21.74
20.29
18.56
16.35
13.44
9.71
5.22
0.21
-4.95
-9.90
-14.39
-18.38
-21.96
-25.39
-28.98
-33.03
-37.80
-43.45
-49.90
-56.67
-62.78
-66.86
-67.43
-63.48
-54.84
-42.36
-27.68
-12.64
1.21
13.04
22.61
30.06
35.49
38.89
40.16
39.39
37.00
33.73
30.46
27.91
26.47
26.12
26.51
27.16
27.61
27.61
27.07
26.08
24.76
23.21
21.38
19.14
16.28
12.64
8.16
2.97
-2.68
-8.43
-13.98
-19.11
-23.81
-28.20
-32.50
-36.94
-41.71
-47.02
-53.02
-59.72
-66.72
-73.06
-77.26
-77.66
-73.06
-63.21
-49.02
-32.36
-15.39
0.09
13.05
23.27
30.93
36.34
39.63
40.89
40.32
38.45
36.04
33.99
32.95
33.19
34.52
36.40
38.22
39.50
40.04
39.87
39.18
38.13
36.76
34.94
32.50
29.25
25.11
20.16
14.61
8.78
2.96
-2.64
-7.95
-13.08
-18.19
-23.45
-28.98
-34.93
-41.44
-48.69
-56.59
-64.56
-71.41
-75.47
-75.13
-69.46
-58.67
-44.11
-27.78
-11.65
2.87
15.12
24.91
32.30
37.24
39.74
39.92
38.24
35.46
32.46
30.01
28.58
28.34
29.11
30.55
32.24
33.84
35.10
35.91
36.25
36.14
35.53
34.40
32.71
30.49
27.82
24.78
21.43
17.72
13.58
9.00
4.10
-0.91
-5.79
-10.41
-14.77
-19.02
-23.41
-28.26
-33.94
-40.60
-47.97
-55.12
-60.49
-62.31
-59.22
-50.85
-38.11
-22.87
-7.33
6.72
18.30
27.23
33.74
38.11
40.45
40.79
39.30
36.39
32.75
29.15
26.25
24.43
23.79
24.15
25.14
26.28
27.14
27.43
27.06
26.10
24.72
23.04
21.03
18.55
15.39
11.48
6.89
1.92
-3.08
-7.82
-12.16
-16.14
-19.87
-23.50
-27.17
-31.03
-35.32
-40.27
-45.96
-52.03
-57.49
-60.83
-60.49
-55.42
-45.61
-32.18
-16.96
-1.95
11.35
22.17
30.38
36.14
39.62
40.92
40.10
37.42
33.42
28.90
24.66
21.36
19.29
18.39
18.29
18.53
18.66
18.42
17.74
16.70
15.40
13.90
12.14
10.01
7.38
4.19
0.48
-3.64
-8.00
-12.44
-16.82
-21.02
-24.95
-28.57
-31.97
-35.34
-39.00
-43.30
-48.43
-54.16
-59.65
-63.55
-64.29
-60.64
-52.20
-39.64
-24.52
-8.82
5.68
17.80
27.08
33.54
37.47
39.15
38.83
36.80
33.54
29.71
26.00
23.01
21.10
20.28
20.30
20.78
21.33
21.68
21.68
21.31
20.61
19.64
18.40
16.84
14.78
12.05
8.53
4.22
-0.63
-5.68
-10.52
-14.92
-18.85
-22.50
-26.18
-30.20
-34.82
-40.18
-46.22
-52.47
-57.99
-61.40
-61.21
-56.38
-46.76
-33.27
-17.66
-2.00
12.03
23.43
31.94
37.72
41.09
42.26
41.41
38.83
35.05
30.82
26.97
24.17
22.72
22.48
22.96
23.52
23.62
22.99
21.74
20.16
18.54
17.01
15.46
13.63
11.24
8.12
4.24
-0.23
-5.06
-9.99
-14.80
-19.34
-23.62
-27.74
-31.96
-36.59
-41.88
-47.92
-54.34
-60.23
-64.20
-64.79
-60.94
-52.44
-40.09
-25.47
-10.38
3.68
15.78
25.58
33.04
38.13
40.80
41.03
39.07
35.50
31.20
27.10
23.94
22.08
21.43
21.56
21.88
21.91
21.44
20.58
19.61
18.80
18.17
17.48
16.26
14.04
10.59
6.02
0.78
-4.57
-9.55
-13.94
-17.83
-21.56
-25.45
-29.76
-34.62
-40.07
-46.00
-51.99
-57.21
-60.42
-60.22
-55.67
-46.67
-34.20
-19.94
-5.72
7.06
17.71
26.13
32.38
36.46
38.22
37.62
34.94
30.87
26.39
22.42
19.57
17.97
17.34
17.21
17.12
16.85
16.41
15.97
15.70
15.55
15.22
14.22
12.04
8.41
3.46
-2.34
-8.32
-13.87
-18.70
-22.91
-26.86
-31.04
-35.81
-41.32
-47.55
-54.31
-61.27
-67.79
-72.93
-75.46
-74.23
-68.49
-58.25
-44.31
-28.01
-10.80
6.14
21.97
36.13
48.13
57.51
63.89
67.19
67.74
66.31
63.86
61.26
59.02
57.16
55.35
53.06
49.88
45.70
40.77
35.62
30.72
26.31
22.23
18.03
13.17
7.39
0.83
-5.96
-12.27
-17.58
-21.74
-25.10
-28.25
-31.86
-36.38
-42.01
-48.64
-55.92
-63.20
-69.42
-73.27
-73.41
-68.98
-59.95
-47.30
-32.70
-17.97
-4.49
7.05
16.57
24.24
30.09
33.96
35.68
35.36
33.63
31.53
30.14
30.17
31.69
34.15
36.67
38.47
39.12
38.70
37.57
36.13
34.52
32.56
29.76
25.67
20.08
13.21
5.59
-2.11
-9.38
-16.04
-22.28
-28.48
-35.04
-42.29
-50.37
-59.16
-68.15
-76.29
-82.11
-84.06
-80.97
-72.60
-59.86
-44.49
-28.54
-13.71
-0.98
9.36
17.40
23.23
26.84
28.18
27.42
25.07
22.00
19.14
17.21
16.49
16.84
17.77
18.76
19.46
19.74
19.72
19.57
19.35
18.92
17.93
15.98
12.79
8.35
2.98
-2.81
-8.49
-13.70
-18.38
-22.68
-26.93
-31.52
-36.80
-43.02
-50.15
-57.63
-64.33
-68.66
-69.00
-64.30
-54.53
-40.77
-24.91
-8.94
5.53
17.63
27.11
34.05
38.58
40.77
40.70
38.70
35.41
31.74
28.64
26.78
26.32
26.93
27.93
28.67
28.77
28.23
27.35
26.47
25.73
24.91
23.58
21.25
17.66
12.91
7.43
1.83
-3.35
-7.78
-11.52
-14.92
-18.49
-22.77
-28.21
-34.96
-42.83
-51.04
-58.22
-62.65
-62.68
-57.43
-47.17
-33.30
-17.90
-2.98
10.13
20.92
29.43
35.73
39.59
40.62
38.57
33.77
27.27
20.64
15.39
12.53
12.23
13.84
16.23
18.19
18.87
17.92
15.57
12.47
9.38
6.95
5.44
4.62
3.84
2.25
-0.90
-5.90
-12.53
-20.18
-28.18
-36.07
-43.81
-51.65
-59.81
-68.36
-76.97
-85.05
-91.66
-95.69
-95.96
-91.45
-81.60
-66.72
-47.95
-27.00
-5.63
14.98
34.39
52.75
70.36
87.20
102.74
116.10
126.33
132.83
135.54
134.94
131.92
127.45
122.29
116.86
111.28
105.54
99.78
94.29
89.39
85.14
81.08
76.30
69.79
60.91
49.73
36.98
23.70
10.84
-1.08
-11.95
-21.95
-31.37
-40.49
-49.65
-59.25
-69.63
-80.75
-91.92
-101.68
-108.10
-109.24
-103.92
-92.17
-75.36
-55.94
-36.66
-19.97
-7.47
0.20
3.15
2.01
-2.28
-8.44
-14.83
-19.69
-21.52
-19.63
-14.49
-7.55
-0.67
4.67
8.00
9.79
11.06
12.62
14.72
16.93
18.55
19.05
18.29
16.50
13.98
10.95
7.44
3.47
-0.75
-4.84
-8.36
-11.20
-13.80
-17.18
-22.47
-30.32
-40.29
-50.75
-59.25
-63.43
-62.01
-55.27
-44.98
-33.68
-23.66
-16.32
-11.90
-9.83
-9.34
-9.96
-11.66
-14.62
-18.87
-24.02
-29.21
-33.47
-35.98
-36.43
-35.05
-32.38
-28.99
-25.23
-21.10
-16.42
-11.02
-4.96
1.35
7.26
12.04
15.06
16.09
15.33
13.49
11.49
10.27
10.36
11.67
13.49
14.62
13.76
9.85
2.50
-7.69
-19.08
-29.23
-35.55
-36.03
-29.89
-17.83
-1.75
15.99
33.26
48.67
61.47
71.35
78.07
81.38
81.19
77.83
72.17
65.43
58.89
53.48
49.65
47.30
45.96
44.95
43.64
41.52
38.37
34.24
29.44
24.42
19.61
15.25
11.37
7.81
4.34
0.81
-2.88
-6.80
-11.08
-15.89
-21.36
-27.44
-33.83
-40.05
-45.62
-50.18
-53.52
-55.48
-55.76
-53.88
-49.34
-41.84
-31.48
-18.76
-4.39
10.94
26.70
42.49
57.86
72.08
84.26
93.50
99.28
101.61
101.00
98.17
93.71
87.90
80.72
72.15
62.44
52.26
42.57
34.26
27.68
22.55
18.01
13.03
6.91
-0.39
-8.25
-15.68
-21.79
-26.16
-28.89
-30.54
-31.88
-33.68
-36.63
-41.30
-47.91
-56.13
-64.80
-72.06
-75.74
-74.15
-66.77
-54.40
-38.95
-22.56
-6.94
7.03
19.16
29.52
38.02
44.34
48.10
49.23
48.19
45.87
43.22
40.95
39.22
37.73
36.01
33.75
31.03
28.38
26.45
25.73
26.29
27.69
29.15
29.94
29.62
28.22
26.08
23.65
21.28
19.03
16.66
13.56
8.95
2.01
-7.73
-20.05
-33.75
-46.89
-57.27
-63.25
-64.40
-61.65
-56.88
-52.14
-48.88
-47.63
-48.07
-49.56
-51.53
-53.75
-56.26
-59.16
-62.39
-65.66
-68.54
-70.56
-71.27
-70.38
-67.74
-63.35
-57.44
-50.46
-43.01
-35.85
-29.68
-25.12
-22.50
-21.83
-22.83
-24.95
-27.57
-30.16
-32.51
-34.79
-37.51
-41.37
-46.90
-54.17
-62.57
-70.71
-76.76
-78.91
-75.94
-67.66
-54.95
-39.51
-23.32
-8.03
5.31
16.33
25.09
31.79
36.64
39.77
41.35
41.65
41.06
39.92
38.52
37.02
35.50
34.08
32.96
32.34
32.36
32.95
33.81
34.48
34.58
33.92
32.66
31.26
30.31
30.38
31.81
34.60
38.35
42.30
45.43
46.72
45.53
41.93
36.83
31.80
28.50
28.01
30.39
34.74
39.79
44.55
48.74
52.67
56.64
60.43
63.08
63.31
60.22
53.88
45.32
36.08
27.54
20.35
14.40
9.19
4.24
-0.61
-5.22
-9.46
-13.42
-17.56
-22.51
-28.81
-36.58
-45.42
-54.44
-62.60
-69.04
-73.35
-75.69
-76.66
-77.06
-77.68
-78.97
-80.85
-82.68
-83.22
-81.03
-74.84
-64.12
-49.29
-31.66
-13.05
4.83
20.84
34.49
45.83
54.93
61.73
65.97
67.38
65.97
62.23
57.00
51.28
45.90
41.29
37.43
33.94
30.34
26.25
21.60
16.52
11.34
6.30
1.48
-3.29
-8.30
-13.83
-20.00
-26.67
-33.50
-39.98
-45.56
-49.61
-51.56
-51.01
-47.90
-42.63
-35.88
-28.39
-20.55
-12.21
-2.77
8.39
21.42
35.69
49.85
62.24
71.46
76.78
78.19
76.20
71.56
64.94
56.94
48.07
38.91
30.11
22.37
16.19
11.79
8.97
7.19
5.77
4.12
1.92
-0.79
-3.66
-6.22
-8.06
-9.00
-9.17
-8.90
-8.72
-9.16
-10.76
-13.91
-18.78
-25.11
-32.17
-38.75
-43.41
-44.89
-42.55
-36.65
-28.21
-18.76
-9.75
-2.18
3.51
7.39
9.65
10.53
10.11
8.51
5.91
2.68
-0.74
-3.87
-6.38
-8.14
-9.17
-9.66
-9.84
-10.00
-10.34
-11.02
-12.10
-13.54
-15.24
-17.05
-18.83
-20.45
-21.81
-22.83
-23.54
-24.05
-24.57
-25.28
-26.15
-26.80
-26.48
-24.27
-19.40
-11.66
-1.58
9.67
20.64
30.06
37.14
41.73
43.99
44.28
42.80
39.73
35.26
29.73
23.68
17.73
12.41
8.04
4.69
2.20
0.32
-1.23
-2.64
-4.00
-5.38
-6.77
-8.17
-9.61
-11.14
-12.81
-14.66
-16.68
-18.88
-21.30
-24.06
-27.30
-31.03
-34.94
-38.32
-40.16
-39.44
-35.52
-28.45
-19.04
-8.61
1.35
9.68
15.73
19.38
20.93
20.80
19.42
17.15
14.33
11.29
8.35
5.75
3.59
1.84
0.35
-1.05
-2.48
-3.99
-5.57
-7.19
-8.84
-10.57
-12.43
-14.44
-16.59
-18.82
-21.07
-23.30
-25.58
-28.08
-31.01
-34.48
-38.30
-41.82
-44.01
-43.77
-40.34
-33.66
-24.47
-14.06
-3.71
5.65
13.76
20.78
27.05
32.72
37.65
41.51
43.99
45.01
44.77
43.65
42.02
40.11
37.99
35.56
32.74
29.50
25.93
22.16
18.27
14.29
10.16
5.81
1.24
-3.48
-8.20
-12.71
-16.86
-20.61
-23.99
-27.08
-29.79
-31.76
-32.31
-30.68
-26.38
-19.53
-10.95
-2.02
5.81
11.47
14.61
15.57
15.07
13.86
12.43
11.02
9.67
8.36
7.19
6.26
5.68
5.47
5.56
5.75
5.83
5.61
4.90
3.57
1.48
-1.38
-4.97
-9.05
-13.33
-17.47
-21.27
-24.63
-27.61
-30.31
-32.84
-35.18
-37.08
-38.04
-37.27
-33.86
-27.10
-16.71
-3.13
12.55
28.87
44.42
58.22
69.85
79.36
87.00
93.02
97.60
101.01
103.65
106.15
109.15
113.00
117.61
122.39
126.47
129.11
129.95
129.09
126.98
124.10
120.72
116.85
112.27
106.78
100.26
92.76
84.39
75.33
65.65
55.43
44.75
33.81
22.95
12.71
3.64
-3.79
-9.35
-13.11
-15.44
-16.83
-17.82
-18.84
-20.19
-22.13
-24.83
-28.43
-32.99
-38.43
-44.50
-50.83
-56.95
-62.37
-66.67
-69.49
-70.68
-70.28
-68.54
-65.83
-62.57
-59.06
-55.51
-52.03
-48.65
-45.37
-42.20
-39.17
-36.40
-34.16
-32.84
-32.82
-34.29
-37.01
-40.24
-42.82
-43.48
-41.11
-35.17
-25.81
-13.93
-0.98
11.35
21.58
28.72
32.40
32.81
30.38
25.51
18.49
9.56
-0.83
-11.96
-22.83
-32.56
-40.64
-47.20
-52.82
-58.26
-64.03
-70.10
-75.99
-80.97
-84.42
-86.10
-86.19
-85.21
-83.83
-82.70
-82.30
-82.96
-84.78
-87.50
-90.42
-92.35
-91.76
-87.24
-77.98
-64.10
-46.72
-27.65
-8.91
7.92
21.90
32.81
40.89
46.50
49.91
51.25
50.67
48.47
45.15
41.30
37.38
33.59
29.79
25.73
21.18
16.12
10.77
5.39
0.18
-4.83
-9.77
-14.81
-19.99
-25.22
-30.26
-34.84
-38.86
-42.49
-46.16
-50.34
-55.26
-60.47
-64.84
-66.71
-64.57
-57.56
-45.99
-31.19
-15.13
0.31
13.84
24.90
33.49
39.80
43.93
45.82
45.46
43.12
39.44
35.36
31.83
29.55
28.77
29.37
30.92
32.96
35.06
36.89
38.18
38.72
38.35
37.04
34.86
31.97
28.53
24.65
20.40
15.79
10.77
5.18
-1.23
-8.61
-16.76
-24.86
-31.53
-35.12
-34.44
-29.21
-20.31
-9.46
1.40
10.79
17.88
22.47
24.57
24.14
21.07
15.38
7.47
-1.80
-11.34
-20.07
-27.30
-32.83
-36.92
-40.09
-42.85
-45.49
-48.09
-50.51
-52.56
-54.12
-55.22
-56.02
-56.75
-57.63
-58.89
-60.74
-63.46
-67.29
-72.30
-78.16
-83.98
-88.38
-89.76
-86.77
-78.80
-66.18
-50.16
-32.54
-15.11
0.73
14.20
25.06
33.37
39.24
42.76
44.05
43.31
41.02
37.80
34.37
31.29
28.91
27.22
25.98
24.79
23.33
21.41
19.06
16.46
13.72
10.86
7.74
4.13
-0.13
-5.09
-10.73
-17.06
-24.18
-32.17
-40.75
-49.05
-55.53
-58.34
-55.94
-47.71
-34.29
-17.40
0.66
17.76
32.34
43.59
51.30
55.58
56.69
54.88
50.56
44.32
36.97
29.44
22.70
17.49
14.26
13.04
13.49
15.03
16.99
18.78
20.00
20.49
20.34
19.72
18.78
17.58
16.07
14.15
11.77
8.84
5.25
0.88
-4.21
-9.56
-14.08
-16.27
-14.69
-8.60
1.52
14.05
26.81
37.88
46.19
51.75
55.23
57.37
58.58
58.78
57.67
55.10
51.26
46.71
42.15
38.16
34.98
32.47
30.23
27.87
25.11
21.95
18.54
15.07
11.61
8.13
4.54
0.85
-2.78
-6.12
-8.97
-11.39
-13.78
-16.70
-20.63
-25.53
-30.61
-34.47
-35.43
-32.21
-24.49
-13.06
0.38
13.87
25.82
35.38
42.45
47.31
50.29
51.62
51.45
50.04
47.89
45.61
43.78
42.69
42.26
42.12
41.81
41.00
39.52
37.43
34.83
31.79
28.37
24.53
20.30
15.75
11.01
6.28
1.74
-2.47
-6.29
-9.78
-13.07
-16.39
-19.95
-23.75
-27.47
-30.41
-31.64
-30.36
-26.24
-19.65
-11.53
-3.13
4.45
10.49
14.73
17.21
18.04
17.36
15.35
12.36
8.91
5.63
3.03
1.37
0.64
0.59
0.91
1.33
1.70
1.95
2.09
2.14
2.10
1.96
1.70
1.25
0.61
-0.19
-1.08
-1.92
-2.59
-3.12
-3.68
-4.57
-6.02
-7.96
-9.95
-11.19
-10.78
-8.14
-3.23
3.31
10.43
17.01
22.23
25.70
27.43
27.68
26.71
24.79
22.18
19.21
16.27
13.71
11.75
10.44
9.67
9.27
9.13
9.18
9.37
9.60
9.66
9.34
8.47
7.04
5.18
3.16
1.19
-0.60
-2.27
-3.98
-5.90
-8.18
-10.87
-13.96
-17.34
-20.80
-23.88
-26.03
-26.61
-25.22
-21.80
-16.81
-11.00
-5.27
-0.27
3.63
6.34
7.91
8.40
7.85
6.37
4.19
1.67
-0.82
-2.93
-4.50
-5.49
-5.95
-5.93
-5.53
-4.84
-4.07
-3.45
-3.20
-3.47
-4.24
-5.41
-6.80
-8.28
-9.72
-11.06
-12.28
-13.40
-14.54
-15.88
-17.63
-19.80
-22.12
-23.94
-24.52
-23.25
-19.97
-15.08
-9.32
-3.57
1.54
5.67
8.78
10.94
12.24
12.73
12.56
11.92
11.04
10.07
9.07
7.96
6.69
5.31
4.05
3.18
2.94
3.38
4.33
5.51
6.54
7.15
7.15
6.38
4.75
2.16
-1.39
-5.75
-10.60
-15.51
-20.02
-23.65
-25.97
-26.59
-25.21
-21.71
-16.27
-9.40
-1.91
5.28
11.37
15.84
18.48
19.37
18.66
16.64
13.62
10.00
6.24
2.78
-0.08
-2.21
-3.66
-4.54
-4.96
-4.95
-4.49
-3.60
-2.38
-1.04
0.15
0.91
1.06
0.54
-0.56
-2.07
-3.81
-5.62
-7.46
-9.37
-11.48
-13.86
-16.48
-19.11
-21.33
-22.66
-22.69
-21.24
-18.39
-14.52
-10.10
-5.65
-1.51
2.06
4.94
7.01
8.17
8.41
7.83
6.73
5.47
4.43
3.76
3.42
3.13
2.59
1.56
0.05
-1.74
-3.54
-5.11
-6.38
-7.47
-8.64
-10.10
-12.02
-14.55
-17.67
-21.16
-24.50
-27.01
-28.01
-27.08
-24.11
-19.51
-14.09
-8.69
-3.91
0.08
3.43
6.29
8.56
10.09
10.45
9.22
6.25
1.93
-2.82
-6.97
-9.68
-10.62
-9.36
-6.12
-1.72
2.86
7.01
10.75
14.41
18.33
22.51
27.89
34.68
41.98
48.33
52.81
55.51
57.46
60.10
64.70
73.88
88.57
107.27
126.86
144.75
159.81
172.56
184.43
196.94
213.64
236.00
262.19
287.72
307.87
318.96
319.25
308.88
272.85
