1713785255.00
64.000000
-0.00
-0.00
-0.00
-0.00
-0.00
-0.00
-0.00
-0.00
-0.00
-0.00
0.00
0.01
0.01
-0.00
-0.03
-0.05
-0.05
0.00
0.13
0.36
0.66
1.01
1.37
1.72
2.06
2.40
2.79
3.24
3.80
4.42
5.06
5.66
6.20
6.68
7.15
7.68
8.31
9.14
10.09
11.04
11.88
12.56
13.14
13.76
14.65
15.96
17.91
20.32
22.90
25.38
27.58
29.57
31.68
34.32
37.81
42.54
48.15
54.10
59.83
64.97
69.58
74.14
79.34
85.71
93.76
103.00
112.62
121.73
129.77
136.75
143.30
150.75
157.77
166.64
177.95
191.79
206.97
220.57
228.25
225.36
208.53
176.87
132.76
80.05
23.07
-34.94
-92.44
-149.16
-205.23
-260.37
-313.74
-363.87
-409.83
-450.91
-486.50
-515.74
-537.23
-549.22
-549.96
-538.37
-514.21
-478.67
-433.88
-382.45
-327.02
-269.84
-212.63
-156.66
-102.95
-52.37
-5.90
35.58
71.43
101.35
125.50
144.38
158.69
169.15
176.37
180.75
182.57
182.07
179.51
175.23
169.65
163.18
156.15
148.81
141.30
133.69
126.02
118.33
110.69
103.16
95.80
88.68
81.83
75.25
68.95
62.95
57.25
51.86
46.78
42.03
37.59
33.45
29.61
26.07
22.81
19.83
17.11
14.67
12.48
10.54
8.84
7.35
6.07
4.97
4.04
3.27
2.63
2.11
1.69
1.32
1.00
0.71
0.44
0.21
0.04
-0.07
-0.12
-0.14
-0.16
-0.20
-0.27
-0.35
-0.43
-0.47
-0.45
-0.39
-0.32
-0.29
-0.33
-0.46
-0.65
-0.84
-0.96
-0.96
-0.87
-0.76
-0.75
-0.93
-1.32
-1.85
-2.36
-2.67
-2.69
-2.45
-2.15
-2.03
-2.32
-3.07
-4.10
-5.12
-5.77
-5.87
-5.46
-4.87
-4.54
-4.83
-5.82
-7.29
-8.75
-9.76
-10.02
-9.58
-8.78
-8.03
-7.70
-8.11
-9.49
-11.92
-15.05
-17.87
-18.73
-15.79
-7.91
4.56
19.59
34.08
45.10
51.03
51.99
49.52
45.47
41.16
36.90
32.47
27.36
21.59
15.63
9.98
4.87
0.09
-4.65
-9.32
-13.25
-15.38
-14.71
-11.01
-5.12
1.24
6.12
8.12
6.87
3.09
-1.89
-6.66
-10.27
-12.44
-13.42
-13.73
-13.81
-13.91
-13.97
-13.78
-13.12
-11.95
-10.46
-9.06
-8.14
-7.93
-8.45
-9.45
-10.54
-11.35
-11.70
-11.57
-11.14
-10.63
-10.25
-10.18
-10.57
-11.47
-12.66
-13.57
-13.26
-10.70
-5.18
3.18
13.25
23.27
31.34
36.26
37.64
35.99
32.21
27.17
21.40
15.16
8.66
1.99
-4.13
-8.83
-11.42
-11.66
-9.84
-6.64
-2.94
0.43
2.76
3.69
3.02
0.87
-2.38
-6.15
-9.78
-12.78
-14.93
-16.39
-17.52
-18.88
-21.01
-24.34
-28.98
-34.48
-39.79
-43.32
-43.36
-38.68
-29.08
-15.64
-0.40
14.28
26.43
34.99
39.86
41.59
40.98
38.74
35.39
31.38
27.18
23.30
20.20
18.12
17.01
16.60
16.49
16.36
15.98
15.30
14.26
12.81
10.89
8.43
5.48
2.18
-1.23
-4.54
-7.61
-10.48
-13.36
-16.59
-20.53
-25.45
-31.21
-37.13
-41.99
-44.29
-42.69
-36.57
-26.27
-13.17
0.85
13.83
24.37
31.80
36.17
37.96
37.74
35.97
32.99
29.07
24.55
19.89
15.66
12.39
10.37
9.51
9.39
9.42
9.05
8.00
6.30
4.18
1.97
-0.14
-2.07
-3.92
-5.81
-7.90
-10.34
-13.32
-17.05
-21.71
-27.31
-33.47
-39.27
-43.32
-44.17
-40.74
-32.86
-21.40
-8.07
5.13
16.53
25.14
30.71
33.52
34.05
32.78
30.18
26.69
22.74
18.75
15.04
11.88
9.42
7.78
6.96
6.81
7.01
7.10
6.62
5.28
3.04
0.09
-3.26
-6.77
-10.29
-13.83
-17.43
-21.18
-25.14
-29.50
-34.45
-39.98
-45.66
-50.44
-52.82
-51.28
-44.97
-34.14
-20.23
-5.38
8.23
19.13
26.79
31.47
33.82
34.39
33.52
31.30
27.89
23.68
19.26
15.31
12.35
10.56
9.72
9.39
9.08
8.47
7.44
6.04
4.40
2.57
0.56
-1.66
-4.07
-6.60
-9.19
-11.88
-14.87
-18.50
-23.15
-28.98
-35.69
-42.33
-47.44
-49.34
-46.76
-39.31
-27.70
-13.57
0.97
14.09
24.57
31.99
36.54
38.64
38.74
37.17
34.23
30.32
25.92
21.56
17.72
14.73
12.69
11.57
11.24
11.47
12.04
12.65
13.00
12.83
11.90
10.15
7.66
4.66
1.45
-1.69
-4.64
-7.42
-10.27
-13.55
-17.70
-22.99
-29.18
-35.42
-40.22
-41.92
-39.23
-31.85
-20.63
-7.35
5.88
17.29
25.91
31.54
34.48
35.16
33.93
31.11
27.07
22.39
17.72
13.68
10.59
8.49
7.06
5.86
4.47
2.54
-0.06
-3.37
-7.34
-11.97
-17.23
-23.17
-29.78
-37.04
-44.89
-53.28
-62.21
-71.76
-82.06
-93.29
-105.59
-118.99
-133.19
-147.42
-160.39
-170.53
-176.38
-177.09
-172.86
-164.95
-155.24
-145.60
-137.26
-130.42
-124.36
-117.98
-110.23
-100.36
-87.74
-71.59
-51.00
-25.46
4.43
36.47
67.13
92.58
110.00
118.58
119.54
115.35
108.53
100.75
92.69
84.38
75.81
67.27
59.24
52.02
45.48
39.00
31.71
22.91
12.44
1.01
-9.96
-18.60
-23.25
-22.97
-17.91
-9.26
1.17
11.57
20.68
27.96
33.50
37.65
40.62
42.37
42.49
40.51
35.96
28.58
18.34
5.45
-9.55
-25.73
-41.68
-55.61
-65.55
-69.86
-67.73
-59.64
-47.35
-33.42
-20.43
-10.11
-2.94
1.69
4.92
7.62
9.94
11.16
10.09
5.68
-2.33
-13.10
-24.71
-34.63
-40.53
-41.01
-35.90
-26.32
-14.07
-1.02
11.34
22.14
30.90
37.39
41.51
43.40
43.50
42.66
41.90
42.15
43.94
47.25
51.54
55.95
59.51
61.36
60.85
57.60
51.54
42.98
32.55
21.08
9.38
-2.00
-12.83
-23.08
-32.77
-41.85
-50.28
-58.10
-65.43
-72.18
-77.62
-80.19
-77.91
-69.12
-53.43
-32.21
-8.24
15.16
35.28
50.73
61.44
68.05
71.33
71.79
69.77
65.72
60.39
54.79
49.81
45.94
43.18
41.11
39.19
37.01
34.41
31.48
28.41
25.41
22.55
19.79
16.93
13.74
10.04
5.76
0.96
-4.33
-10.14
-16.58
-23.61
-30.88
-37.55
-42.45
-44.44
-42.88
-37.98
-30.78
-22.85
-15.80
-10.81
-8.43
-8.65
-11.10
-15.25
-20.65
-26.81
-33.27
-39.51
-44.95
-49.09
-51.61
-52.46
-51.84
-50.12
-47.61
-44.38
-40.20
-34.61
-27.21
-17.93
-7.19
4.11
14.86
24.07
31.09
35.72
38.10
38.54
37.55
35.82
34.25
33.82
35.35
39.22
45.18
52.47
60.08
67.04
72.69
76.56
78.41
78.03
75.26
70.10
62.85
54.11
44.78
35.83
28.13
22.27
18.39
16.30
15.47
15.32
15.80
17.00
18.91
21.31
23.77
25.81
27.01
27.06
25.87
24.09
22.31
20.79
19.24
17.21
14.58
11.77
9.70
9.40
12.77
20.78
32.94
47.39
61.86
74.58
84.65
91.80
96.02
100.69
108.46
119.94
133.33
145.95
155.92
162.58
166.08
166.62
171.13
184.88
208.68
238.22
267.23
291.03
307.65
317.12
320.02
328.27
351.14
390.54
439.84
488.92
530.06
559.92
578.69
587.69
603.67
639.97
700.13
776.50
856.94
932.69
1000.68
1061.46
1035.34
876.94
592.32
242.37
-98.36
-381.26
-590.32
-730.63
-809.77
-853.70
-866.71
-849.04
-804.48
-743.60
-679.43
-621.65
-575.93
-544.07
-526.93
-511.87
-488.33
-452.91
-410.81
-371.14
-340.97
-323.08
-316.48
-318.78
-318.76
-307.56
-282.28
-247.09
-209.77
-177.29
-153.81
-140.53
-136.96
-136.90
-134.51
-126.65
-114.00
-100.02
-88.91
-84.19
-87.74
-99.63
-116.37
-133.73
-148.46
-159.33
-166.69
-171.43
-174.15
-174.81
-173.09
-168.63
-161.84
-153.90
-146.26
-139.85
-134.80
-130.63
-126.48
-121.42
-114.97
-107.02
-98.02
-88.73
-79.72
-71.42
-63.99
-57.57
-51.99
-47.04
-42.61
-38.91
-36.20
-34.01
-31.48
-27.63
-22.23
-15.02
-6.06
4.09
14.27
23.17
30.74
37.49
43.88
48.83
52.13
53.98
54.99
55.29
54.86
55.25
58.08
64.19
71.54
79.29
87.46
96.63
106.51
116.45
127.81
142.28
160.77
180.56
200.66
221.43
243.78
267.17
278.24
266.53
229.34
186.94
144.81
104.10
61.94
20.90
-15.39
-43.94
-61.47
-66.45
-59.73
-46.44
-29.18
-7.20
21.10
55.13
91.62
126.97
157.42
179.41
188.01
175.94
143.32
98.53
53.64
17.37
-8.56
-27.96
-44.35
-61.90
-83.34
-105.64
-127.29
-149.12
-173.78
-203.51
-238.50
-276.32
-313.29
-344.26
-363.45
-367.69
-356.92
-333.49
-300.04
-258.32
-209.56
-155.96
-100.77
-47.50
0.12
39.47
69.82
92.39
109.48
123.32
135.12
145.25
154.02
161.21
166.37
168.72
167.37
161.59
150.90
134.95
113.59
87.25
57.13
25.77
-3.07
-25.23
-37.66
-39.82
-34.24
-25.71
-19.34
-18.73
-24.81
-36.09
-49.80
-63.19
-74.43
-82.66
-87.69
-89.50
-88.12
-83.61
-76.27
-66.51
-54.78
-41.39
-26.43
-10.04
7.35
24.66
40.24
52.24
59.22
60.62
56.93
49.38
39.40
28.26
16.93
6.39
-2.25
-7.71
-9.08
-6.42
-1.12
4.45
7.93
8.10
5.47
1.93
-0.30
0.25
3.66
8.80
14.13
18.53
21.94
25.53
31.52
42.66
61.40
88.70
122.86
158.97
189.66
207.19
206.14
185.62
149.73
106.29
64.21
30.82
9.99
1.60
2.25
6.73
9.71
7.21
-2.48
-18.57
-38.21
-57.51
-72.73
-81.15
-81.61
-74.63
-62.11
-46.92
-32.23
-20.82
-14.44
-13.37
-16.62
-22.23
-27.89
-31.44
-31.40
-27.33
-20.01
-11.27
-3.41
1.65
3.23
2.08
-0.04
-1.20
-0.30
2.63
6.57
10.22
12.64
13.62
13.58
13.26
13.34
14.16
15.68
17.48
18.83
18.77
16.25
10.32
0.50
-12.94
-28.83
-45.30
-60.25
-71.98
-79.85
-84.27
-86.44
-87.62
-88.58
-89.35
-89.54
-88.68
-86.67
-83.69
-80.01
-75.62
-70.30
-63.87
-56.68
-49.72
-44.53
-42.43
-43.87
-47.85
-52.18
-54.22
-51.91
-44.51
-32.62
-17.60
-0.82
17.00
35.67
55.22
75.39
95.41
114.23
130.94
144.99
156.28
164.78
170.33
172.52
170.94
165.59
157.03
146.33
134.65
122.81
111.06
99.08
86.33
72.31
56.95
40.64
24.06
7.90
-7.42
-21.73
-35.09
-47.66
-59.64
-71.01
-81.49
-90.47
-97.20
-101.07
-101.86
-99.87
-95.80
-90.64
-85.19
-79.87
-74.83
-70.14
-66.02
-62.83
-60.98
-60.69
-62.24
-65.41
-69.47
-73.54
-76.97
-79.60
-81.62
-83.37
-85.00
-86.97
-88.92
-89.74
-88.11
-83.42
-76.19
-67.84
-60.19
-54.82
-53.74
-57.29
-64.22
-72.18
-78.97
-83.26
-84.62
-83.11
-79.06
-74.34
-69.86
-65.72
-61.10
-55.08
-46.98
-36.43
-23.45
0.09
34.52
72.60
103.45
120.90
125.51
121.67
114.00
105.68
98.13
89.53
79.76
69.10
58.46
48.31
38.52
28.79
19.21
10.30
2.11
-0.23
6.31
21.90
43.01
63.85
78.51
84.55
80.90
67.13
45.04
17.54
-11.40
-37.78
-57.23
-66.69
-65.10
-53.77
-35.86
-14.81
6.07
24.77
40.64
53.91
64.99
74.23
81.70
87.47
91.95
95.42
98.17
100.30
101.71
101.95
100.60
97.26
91.88
84.90
76.91
68.79
61.54
56.14
53.11
52.40
53.35
55.10
57.02
58.95
61.28
64.74
69.68
75.29
79.30
78.39
69.48
51.06
24.01
-8.56
-42.26
-72.68
-96.39
-111.28
-116.63
-113.07
-102.52
-88.11
-73.57
-62.20
-55.87
-54.60
-56.99
-61.31
-66.54
-72.66
-80.11
-88.96
-98.31
-106.43
-111.37
-111.74
-107.11
-97.98
-85.29
-69.94
-52.51
-33.28
-12.65
8.62
28.99
46.81
61.40
72.88
82.35
91.72
102.84
116.74
133.33
151.45
169.87
188.17
206.08
223.09
238.43
251.10
260.14
265.11
265.60
261.81
255.03
245.46
232.17
214.25
191.53
164.90
136.31
106.50
76.87
51.54
32.33
18.52
9.08
2.98
-0.87
-3.66
-10.27
-24.11
-41.42
-61.07
-84.93
-114.19
-149.57
-191.46
-239.39
-296.93
-362.83
-422.61
-465.89
-489.52
-493.61
-482.54
-464.24
-447.91
-448.38
-472.94
-509.18
-546.36
-578.71
-599.87
-605.15
-592.66
-517.69
-368.11
-222.99
-108.51
-12.22
66.25
126.48
169.01
196.41
213.48
219.02
214.74
214.91
224.87
240.43
257.38
272.81
285.67
296.51
300.73
295.92
289.93
285.16
278.37
267.65
252.75
234.90
216.15
194.85
169.99
146.37
125.06
103.80
81.83
60.12
40.84
26.28
16.05
9.07
6.36
6.83
7.69
6.83
2.91
-4.77
-16.19
-31.25
-48.74
-65.59
-79.13
-87.85
-91.28
-90.07
-85.83
-80.45
-75.64
-72.44
-71.24
-71.86
-73.87
-76.68
-79.58
-81.75
-82.34
-80.70
-76.64
-70.57
-63.29
-55.67
-48.29
-41.37
-34.83
-28.62
-22.89
-18.00
-14.31
-12.00
-10.92
-10.68
-10.73
-10.54
-9.60
-7.57
-4.31
0.01
4.90
9.73
13.90
17.13
19.52
21.56
23.80
26.60
29.96
33.51
36.70
39.09
40.55
41.34
42.02
43.24
45.59
49.37
54.49
60.44
66.33
71.13
74.02
74.82
74.18
73.56
74.88
79.84
89.46
103.66
121.20
140.01
157.49
171.18
179.20
180.73
176.20
167.13
155.68
144.00
133.62
125.09
117.87
110.66
101.88
90.21
75.13
57.16
37.76
18.95
2.64
-10.03
-19.15
-25.93
-32.20
-39.51
-48.40
-58.13
-67.10
-73.65
-76.98
-77.72
-77.77
-79.50
-84.85
-94.54
-107.64
-121.74
-133.39
-139.08
-136.62
-126.47
-112.55
-101.66
-101.20
-115.96
-145.48
-183.45
-219.82
-244.72
-252.40
-242.91
-221.24
-194.38
-168.25
-146.07
-128.63
-115.65
-106.82
-101.89
-99.92
-98.53
-94.17
-83.34
-64.27
-37.91
-7.68
21.80
46.36
63.38
72.18
73.64
69.59
62.25
53.88
46.42
41.18
38.55
38.03
38.54
39.06
39.05
38.54
37.84
37.02
35.70
33.19
29.03
23.52
17.95
14.23
14.32
19.44
29.64
43.62
59.19
73.83
85.52
93.20
97.05
98.17
98.02
97.78
97.78
97.46
95.58
90.92
82.79
71.41
57.95
44.32
32.86
25.91
25.43
32.39
46.38
65.31
85.89
104.37
117.64
124.21
124.58
120.87
115.77
111.34
108.10
104.97
99.89
90.88
77.03
58.83
37.85
15.93
-5.67
-26.64
-47.50
-68.81
-90.42
-110.99
-128.19
-139.33
-142.47
-137.15
-124.62
-107.43
-88.42
-69.82
-52.76
-37.34
-23.37
-10.89
-0.52
6.92
10.93
11.88
10.96
9.78
9.62
10.97
13.46
16.15
18.16
19.06
18.98
18.45
18.02
17.95
18.17
18.49
18.79
19.32
20.63
23.36
27.96
34.42
42.20
50.40
58.09
64.55
69.42
72.69
74.56
75.28
75.03
73.92
71.96
69.04
64.90
59.13
51.32
41.19
28.79
14.55
-0.93
-17.05
-33.38
-49.55
-64.97
-78.57
-88.96
-94.79
-95.39
-91.21
-83.68
-74.75
-66.12
-58.75
-52.79
-47.88
-43.55
-39.51
-35.68
-32.09
-28.76
-25.64
-22.66
-19.75
-16.83
-13.85
-10.80
-7.74
-4.78
-2.09
0.21
2.10
3.66
4.99
6.14
7.03
7.54
7.52
6.93
5.81
4.22
2.23
-0.15
-2.85
-5.79
-8.77
-11.60
-14.08
-16.17
-17.93
-19.50
-20.99
-22.48
-23.98
-25.46
-27.01
-28.75
-30.89
-33.61
-37.07
-41.27
-46.02
-50.83
-54.87
-57.15
-56.74
-53.15
-46.54
-37.72
-27.90
-18.27
-9.65
-2.33
3.79
8.98
13.42
17.12
20.00
22.00
23.24
23.98
24.56
25.22
26.00
26.76
27.27
27.40
27.18
26.85
26.69
26.92
27.56
28.45
29.36
30.08
30.56
30.86
31.08
31.29
31.47
31.61
31.69
31.76
31.88
32.06
32.25
32.32
32.12
31.59
30.77
29.81
28.84
27.96
27.12
26.16
24.87
23.10
20.76
17.86
14.50
10.84
7.19
3.98
1.80
1.20
2.57
5.93
10.89
16.78
22.87
28.61
33.71
38.14
41.96
45.29
48.21
50.82
53.23
55.53
57.73
59.72
61.30
62.30
62.65
62.44
61.91
61.30
60.89
60.93
61.63
63.10
65.20
67.38
68.55
67.20
61.80
51.28
35.59
15.69
-6.67
-29.60
-51.48
-71.09
-87.37
-99.21
-105.55
-105.84
-100.64
-91.79
-82.00
-73.94
-69.26
-68.17
-69.76
-72.68
-75.91
-79.02
-81.97
-84.62
-86.36
-86.17
-82.98
-76.20
-66.09
-53.76
-40.75
-28.45
-17.63
-8.33
-0.08
7.57
14.70
20.90
25.59
28.39
29.47
29.51
29.41
29.93
31.44
33.92
37.13
40.83
44.95
49.47
54.29
59.11
63.51
67.08
69.63
71.33
72.64
74.10
75.98
78.11
79.92
80.72
80.10
78.23
75.85
73.94
73.28
73.97
75.25
75.80
74.18
69.49
61.76
51.95
41.59
32.16
24.44
18.18
12.16
4.60
-6.23
-21.34
-40.73
-63.36
-87.46
-110.98
-132.05
-149.31
-162.06
-170.33
-174.76
-176.31
-175.98
-174.37
-171.65
-167.57
-161.82
-154.44
-145.94
-137.22
-129.20
-122.40
-116.78
-111.75
-106.52
-100.47
-93.31
-85.19
-76.54
-67.88
-59.54
-51.45
-43.18
-34.10
-23.70
-11.98
0.40
12.22
22.13
29.20
33.25
34.87
35.21
35.63
37.34
41.32
48.15
58.06
70.82
85.22
98.87
108.56
111.37
105.95
93.54
77.79
63.58
55.29
55.21
62.86
75.78
90.76
104.70
114.99
118.99
114.82
102.53
84.97
66.93
53.90
50.01
56.58
72.32
93.26
114.79
132.87
143.95
144.11
130.76
104.43
69.87
35.59
8.74
-6.87
-11.89
-11.23
-12.86
-23.32
-45.08
-76.07
-110.24
-143.07
-170.80
-190.00
-198.62
-198.12
-192.00
-184.46
-179.12
-177.02
-181.11
-193.31
-213.19
-225.29
-216.28
-182.72
-134.02
-94.80
-66.88
-47.75
-34.85
-21.77
-6.04
11.24
27.83
42.25
55.04
69.76
86.97
105.83
124.66
140.49
149.12
147.56
135.61
116.34
95.81
77.64
63.84
55.24
51.06
48.94
46.23
41.01
32.85
23.34
13.40
4.10
-3.20
-7.60
-8.96
-7.75
-4.75
-0.78
3.70
7.62
9.96
10.23
8.17
3.92
-1.98
-8.66
-15.09
-20.28
-23.85
-25.81
-26.43
-26.37
-26.09
-25.69
-25.07
-24.16
-22.98
-21.48
-19.33
-16.18
-12.32
-7.97
-3.09
2.60
9.45
17.71
27.59
39.21
51.78
62.91
70.32
72.66
69.70
62.05
50.56
36.21
20.17
2.76
-17.13
-39.47
-62.21
-81.67
-94.12
-97.86
-93.95
-85.92
-71.18
-51.48
-31.42
-15.70
-5.72
0.44
5.78
10.05
17.03
28.65
43.17
56.47
62.81
56.17
34.27
-2.04
-45.55
-83.46
-103.13
-97.88
-68.78
-23.82
25.69
69.56
101.53
120.48
128.64
127.52
116.18
93.03
58.12
14.61
-31.66
-74.69
-109.77
-134.19
-148.52
-154.93
-154.26
-145.40
-126.42
-96.81
-59.87
-20.95
15.53
45.75
67.94
82.69
91.30
93.99
89.52
75.00
49.79
18.06
-15.36
-46.53
-73.01
-94.68
-113.19
-130.51
-149.22
-169.35
-186.91
-199.48
-206.78
-208.99
-206.31
-198.55
-175.07
-133.53
-90.51
-49.37
-7.10
35.68
77.04
114.23
144.25
164.75
173.37
170.78
162.44
152.64
143.38
135.02
126.24
114.81
98.92
77.11
50.69
24.81
3.70
-10.38
-16.69
-16.16
-10.85
-2.96
5.17
12.72
21.06
30.85
41.51
51.80
60.09
65.00
66.03
63.36
58.28
52.95
48.74
45.95
44.29
43.22
42.33
41.56
40.96
40.70
40.96
41.45
41.46
40.29
37.48
33.07
27.62
22.09
17.46
14.41
13.10
13.13
13.69
13.84
12.77
10.01
5.51
-0.39
-7.02
-13.57
-19.23
-23.42
-26.05
-27.54
-28.73
-30.54
-33.51
-37.42
-41.29
-43.63
-43.07
-38.86
-31.06
-20.51
-8.37
4.24
16.60
28.48
40.22
52.60
66.52
82.59
100.62
119.45
137.13
151.52
160.85
164.09
160.69
150.25
132.32
106.73
74.24
36.95
-1.79
-38.30
-69.81
-95.19
-114.92
-130.15
-141.60
-149.14
-152.18
-150.49
-144.92
-137.24
-129.41
-122.62
-116.89
-111.40
-105.31
-98.54
-91.95
-86.93
-84.66
-85.42
-88.57
-92.79
-96.43
-97.88
-95.54
-87.71
-72.60
-48.77
-15.93
24.17
67.48
108.23
140.54
160.31
166.64
161.83
150.18
136.10
122.47
110.15
98.62
87.09
75.43
64.21
54.20
45.73
38.42
31.53
24.50
17.40
10.89
5.86
2.90
1.92
2.23
2.71
2.33
0.54
-2.51
-6.05
-8.98
-10.34
-9.77
-7.67
-5.15
-3.57
-3.98
-6.61
-10.68
-14.63
-16.71
-15.67
-11.26
-4.46
3.00
9.30
13.35
15.16
15.73
16.48
18.48
22.03
26.68
31.52
35.58
38.09
38.55
36.70
32.53
26.49
19.50
12.80
7.63
4.74
4.17
5.34
7.44
9.85
12.39
15.17
18.25
21.33
23.59
23.93
21.42
15.73
7.38
-2.36
-11.86
-19.63
-24.64
-26.57
-25.71
-22.85
-18.98
-15.10
-11.83
-9.22
-6.68
-3.14
2.42
10.45
20.55
31.45
41.53
49.34
53.98
55.18
53.09
48.12
40.77
31.66
21.60
11.48
2.05
-6.26
-13.35
-19.38
-24.51
-28.81
-32.17
-34.52
-35.90
-36.57
-36.95
-37.41
-38.16
-38.99
-39.37
-38.58
-36.08
-31.71
-25.95
-19.85
-14.73
-11.95
-12.51
-16.90
-25.02
-36.21
-49.37
-63.15
-76.33
-88.01
-97.84
-105.92
-112.58
-118.02
-122.04
-124.06
-123.19
-118.62
-109.97
-97.52
-82.35
-66.19
-51.12
-39.15
-31.73
-29.42
-31.73
-37.28
-44.20
-50.62
-55.13
-57.05
-56.37
-53.59
-49.38
-44.38
-39.15
-34.12
-29.73
-26.39
-24.31
-23.46
-23.51
-24.09
-25.05
-26.77
-30.04
-35.74
-44.20
-54.82
-66.08
-76.09
-83.35
-87.21
-87.98
-86.35
-82.85
-77.45
-69.75
-59.50
-47.03
-33.35
-19.83
-7.63
2.73
11.35
18.66
25.02
30.51
35.04
38.47
40.84
42.32
43.14
43.44
43.23
42.47
41.17
39.51
37.84
36.55
35.94
36.02
36.50
36.86
36.55
35.18
32.68
29.29
25.44
21.59
18.03
14.88
12.03
9.24
6.19
2.54
-1.94
-7.21
-12.78
-17.77
-21.04
-21.60
-18.95
-13.28
-5.43
3.39
12.06
19.74
26.04
30.83
34.17
36.10
36.71
36.13
34.62
32.55
30.30
28.17
26.28
24.57
22.94
21.30
19.66
18.14
16.77
15.56
14.36
12.93
10.96
8.16
4.20
-1.12
-7.78
-15.46
-23.49
-31.04
-37.35
-42.00
-45.03
-46.76
-47.55
-47.45
-46.17
-43.10
-37.73
-29.90
-19.97
-8.74
2.89
14.16
24.70
34.46
43.60
52.15
59.94
66.59
71.69
75.03
76.66
76.89
76.13
74.78
73.06
71.03
68.63
65.79
62.48
58.83
54.99
51.19
47.56
44.12
40.83
37.58
34.31
31.02
27.75
24.59
21.53
18.49
15.31
11.77
7.57
2.40
-4.08
-12.01
-21.19
-30.91
-40.04
-47.26
-51.49
-52.17
-49.39
-43.77
-36.19
-27.51
-18.53
-9.94
-2.40
3.52
7.39
9.17
9.21
8.18
6.85
5.91
5.86
6.93
9.16
12.32
15.93
19.28
21.59
22.15
20.69
17.44
13.20
9.14
6.37
5.67
7.22
10.68
15.44
20.95
26.94
33.41
40.33
47.36
53.67
58.22
60.27
59.98
58.62
58.26
61.06
68.51
81.00
97.78
117.26
137.33
155.54
169.28
176.04
173.91
162.19
141.71
114.72
84.18
52.94
23.11
-4.13
-28.22
-48.77
-65.31
-77.38
-84.84
-88.26
-88.93
-88.57
-88.81
-90.67
-94.36
-99.39
-104.98
-110.43
-115.27
-119.10
-121.29
-120.81
-116.53
-107.81
-95.02
-79.75
-64.29
-50.64
-39.62
-30.50
-21.34
-10.05
4.63
22.49
42.03
61.16
78.07
91.78
102.22
109.87
115.36
119.25
122.00
124.20
126.56
129.75
133.99
138.69
142.43
143.33
139.74
130.78
116.66
98.36
77.21
54.42
30.84
7.05
-16.48
-39.27
-60.86
-80.89
-99.09
-115.27
-129.12
-140.24
-148.24
-153.02
-154.87
-154.49
-152.70
-150.15
-147.14
-143.63
-139.41
-134.39
-128.68
-122.67
-116.82
-111.54
-107.02
-103.26
-100.08
-97.20
-94.24
-90.84
-86.61
-81.26
-74.70
-67.12
-58.88
-50.34
-41.61
-32.41
-22.19
-10.44
2.85
17.15
31.45
44.67
56.01
65.15
72.07
76.78
79.01
78.20
73.76
65.47
53.70
39.51
24.37
9.74
-3.15
-13.50
-20.79
-24.70
-24.93
-21.37
-14.18
-4.06
7.84
20.11
31.56
41.51
49.96
57.43
64.73
72.81
82.58
94.93
110.33
128.31
146.98
162.95
172.13
171.14
158.76
136.62
108.69
79.84
54.20
34.09
20.01
11.23
6.64
5.11
5.46
6.22
5.67
2.22
-5.07
-16.10
-29.81
-44.46
-58.23
-69.56
-77.47
-81.58
-82.14
-79.90
-75.84
-70.97
-66.10
-61.80
-58.41
-56.16
-55.23
-55.67
-57.31
-59.67
-61.99
-63.46
-63.39
-61.46
-57.70
-52.51
-46.44
-40.10
-34.01
-28.60
-24.10
-20.54
-17.70
-15.18
-12.59
-9.67
-6.46
-3.22
-0.31
1.99
3.56
4.41
4.63
4.31
3.73
3.38
4.03
6.60
11.81
19.94
30.64
43.11
56.47
69.96
83.10
95.51
106.70
116.01
122.88
127.14
129.27
130.40
131.74
134.09
137.26
140.03
140.56
137.19
129.05
116.44
100.65
83.39
66.29
50.43
36.31
24.11
13.92
5.98
0.51
-2.59
-4.08
-5.44
-8.52
-14.95
-25.41
-39.27
-54.74
-69.34
-80.74
-87.47
-89.20
-86.67
-81.32
-74.74
-68.25
-62.63
-58.05
-54.25
-50.76
-47.17
-43.30
-39.19
-34.94
-30.68
-26.40
-22.19
-18.28
-15.13
-13.31
-13.23
-14.96
-18.06
-21.81
-25.36
-28.15
-29.96
-30.97
-31.50
-31.86
-32.20
-32.49
-32.63
-32.55
-32.26
-31.76
-30.98
-29.66
-27.42
-24.03
-19.63
-14.77
-10.30
-6.92
-4.86
-3.79
-3.02
-1.94
-0.32
1.58
3.24
4.26
4.57
4.51
4.54
5.02
6.00
7.20
8.21
8.71
8.60
8.01
7.14
6.18
5.14
3.91
2.39
0.56
-1.41
-3.22
-4.54
-5.19
-5.24
-4.97
-4.77
-5.06
-6.11
-8.02
-10.65
-13.55
-16.08
-17.36
-16.52
-12.93
-6.49
2.22
11.87
20.69
26.84
28.98
26.63
20.37
11.56
1.96
-6.81
-13.65
-18.16
-20.47
-21.04
-20.34
-18.82
-16.81
-14.67
-12.74
-11.32
-10.59
-10.50
-10.82
-11.25
-11.49
-11.35
-10.81
-9.94
-8.90
-7.90
-7.11
-6.65
-6.60
-7.04
-8.02
-9.56
-11.58
-13.85
-15.91
-17.22
-17.24
-15.63
-12.39
-7.88
-2.67
2.54
7.19
10.87
13.43
14.90
15.47
15.36
14.81
14.03
13.22
12.52
11.99
11.56
11.03
10.11
8.55
6.36
3.75
1.22
-0.73
-1.72
-1.64
-0.67
0.83
2.48
4.00
5.21
6.08
6.63
6.91
6.94
6.72
6.18
5.25
3.88
2.12
0.20
-1.53
-2.67
-2.93
-2.29
-1.00
0.48
1.68
2.27
2.14
1.41
0.30
-0.88
-1.84
-2.33
-2.18
-1.36
-0.06
1.36
2.46
2.90
2.62
1.90
1.31
1.45
2.71
5.01
7.80
10.25
11.55
11.22
9.24
6.09
2.48
-0.87
-3.45
-5.11
-5.96
-6.30
-6.43
-6.67
-7.20
-8.07
-9.18
-10.19
-10.67
-10.19
-8.52
-5.82
-2.58
0.47
2.69
3.75
3.84
3.47
3.30
3.77
4.92
6.49
8.06
9.40
10.48
11.52
12.72
14.15
15.65
16.92
17.76
18.15
18.29
18.49
18.96
19.72
20.60
21.35
21.75
21.77
21.57
21.38
21.40
21.67
22.07
22.39
22.47
22.31
22.09
22.05
22.43
23.38
24.92
26.97
29.37
31.86
34.15
35.96
37.17
37.93
38.70
40.14
42.80
46.82
51.81
56.95
61.20
63.67
63.68
60.84
54.87
45.58
32.96
17.35
-0.33
-18.65
-35.92
-50.67
-61.95
-69.59
-74.07
-76.23
-76.89
-76.73
-76.06
-74.95
-73.27
-70.87
-67.68
-63.79
-59.53
-55.36
-51.74
-48.98
-47.03
-45.56
-44.02
-41.88
-38.80
-34.66
-29.56
-23.68
-17.14
-9.92
-1.91
7.03
17.02
28.00
39.72
51.65
63.00
72.86
80.44
85.39
87.96
88.85
88.85
88.31
86.83
83.29
76.33
65.05
49.55
31.01
11.39
-7.20
-23.10
-35.45
-44.22
-50.03
-53.77
-56.35
-58.47
-60.57
-62.82
-65.18
-67.49
-69.51
-71.03
-71.83
-71.66
-70.27
-67.44
-63.11
-57.46
-50.92
-44.08
-37.49
-31.46
-25.97
-20.82
-15.80
-10.95
-6.60
-3.25
-1.31
-0.85
-1.58
-2.93
-4.36
-5.46
-6.16
-6.53
-6.75
-6.93
-7.09
-7.13
-6.93
-6.38
-5.47
-4.30
-3.09
-2.14
-1.68
-1.82
-2.45
-3.29
-4.01
-4.32
-4.19
-3.80
-3.49
-3.59
-4.24
-5.39
-6.75
-7.96
-8.67
-8.64
-7.76
-6.09
-3.77
-1.05
1.83
4.66
7.33
9.85
12.34
14.94
17.75
20.76
23.83
26.73
29.25
31.25
32.73
33.79
34.63
35.38
36.10
36.75
37.19
37.27
36.87
36.01
34.86
33.67
32.67
32.00
31.61
31.31
30.79
29.69
27.60
24.12
18.91
11.80
2.90
-7.22
-17.65
-27.39
-35.56
-41.71
-45.85
-48.21
-49.05
-48.48
-46.42
-42.85
-37.90
-32.05
-25.98
-20.38
-15.74
-12.22
-9.63
-7.63
-5.89
-4.19
-2.47
-0.77
0.85
2.39
3.85
5.28
6.62
7.83
8.84
9.67
10.40
11.16
12.05
12.98
13.76
14.12
13.86
13.01
11.77
10.46
9.32
8.45
7.73
6.95
5.92
4.54
2.82
0.84
-1.23
-3.21
-4.81
-5.80
-5.96
-5.24
-3.74
-1.71
0.57
2.87
5.01
6.93
8.58
9.94
10.95
11.61
11.96
12.12
12.23
12.47
12.97
13.82
14.93
16.09
17.00
17.39
17.15
16.40
15.46
14.73
14.49
14.86
15.75
16.95
18.23
19.35
20.08
20.13
19.31
17.60
15.30
12.96
11.23
10.59
11.22
12.97
15.46
18.32
21.20
23.88
26.16
27.77
28.44
27.83
25.68
21.90
16.62
10.25
3.51
-2.80
-7.96
-11.62
-13.94
-15.48
-16.89
-18.63
-20.78
-23.09
-25.16
-26.72
-27.75
-28.42
-28.90
-29.27
-29.43
-29.23
-28.61
-27.67
-26.59
-25.53
-24.51
-23.48
-22.40
-21.46
-21.07
-21.75
-23.82
-27.19
-31.28
-35.16
-37.90
-38.88
-37.94
-35.31
-31.46
-26.84
-21.89
-16.93
-12.28
-8.28
-5.21
-3.18
-2.02
-1.28
-0.31
1.48
4.42
8.51
13.38
18.49
23.25
27.13
29.65
30.42
29.24
26.31
22.34
18.46
15.87
15.41
17.21
20.59
24.35
27.23
28.32
27.14
23.62
17.86
9.99
0.28
-10.80
-22.41
-33.47
-42.81
-49.55
-53.32
-54.39
-53.47
-51.45
-49.04
-46.55
-43.87
-40.73
-36.95
-32.55
-27.81
-23.01
-18.29
-13.58
-8.70
-3.55
1.80
7.09
12.09
16.71
21.07
25.29
29.33
32.88
35.41
36.49
36.09
34.79
33.68
34.08
37.13
43.51
53.30
65.98
80.53
95.56
109.51
121.05
129.46
134.93
138.51
141.67
145.56
150.43
155.35
158.53
157.97
152.20
140.77
124.47
105.04
84.63
65.19
47.89
32.89
19.37
6.01
-8.52
-25.00
-43.55
-63.66
-84.51
-105.13
-124.50
-141.51
-155.00
-163.88
-167.53
-166.04
-160.33
-151.87
-142.30
-132.87
-124.18
-116.18
-108.49
-100.79
-93.13
-85.96
-79.88
-75.31
-72.27
-70.27
-68.52
-66.24
-62.94
-58.62
-53.65
-48.58
-43.78
-39.24
-34.54
-29.12
-22.66
-15.41
-8.19
-2.08
2.04
3.88
3.75
2.36
0.40
-1.68
-3.73
-5.75
-7.65
-9.26
-10.39
-11.01
-11.26
-11.41
-11.57
-11.54
-10.85
-8.90
-5.33
-0.14
6.27
13.21
19.98
26.00
30.91
34.50
36.74
37.70
37.64
37.01
36.37
36.30
37.11
38.78
40.95
43.20
45.42
48.02
51.91
58.18
67.59
80.15
95.04
110.76
125.44
137.15
144.12
144.94
138.91
126.32
108.67
88.32
67.82
48.90
31.87
15.75
-1.07
-19.73
-40.09
-60.63
-78.99
-92.83
-100.67
-102.24
-98.46
-91.05
-82.05
-73.29
-66.05
-60.91
-57.81
-56.29
-55.82
-55.97
-56.55
-57.46
-58.69
-60.17
-61.92
-63.92
-66.09
-68.19
-69.70
-69.94
-68.25
-64.31
-58.28
-50.82
-42.83
-35.24
-28.68
-23.41
-19.34
-16.13
-13.38
-10.73
-7.99
-5.15
-2.34
0.23
2.46
4.37
6.15
8.02
10.13
12.43
14.71
16.66
18.02
18.64
18.55
17.84
16.61
14.92
12.78
10.20
7.31
4.33
1.57
-0.69
-2.29
-3.25
-3.76
-4.15
-4.78
-5.97
-7.94
-10.72
-14.17
-17.95
-21.67
-24.95
-27.55
-29.41
-30.57
-31.10
-31.01
-30.25
-28.73
-26.44
-23.45
-19.92
-16.00
-11.79
-7.37
-2.81
1.76
6.13
10.11
13.59
16.63
19.48
22.49
26.00
30.15
34.80
39.54
43.85
47.22
49.37
50.29
50.20
49.45
48.35
47.07
45.57
43.68
41.11
37.55
32.69
26.20
17.89
7.78
-3.74
-15.91
-27.72
-38.17
-46.57
-52.69
-56.71
-59.00
-59.83
-59.23
-57.07
-53.24
-47.90
-41.52
-34.69
-27.91
-21.39
-15.02
-8.54
-1.70
5.58
13.15
20.78
28.25
35.47
42.49
49.34
56.01
62.43
68.54
74.40
80.22
86.28
92.82
99.86
107.08
113.76
118.88
121.17
119.32
112.14
98.90
79.59
55.10
27.14
-2.15
-30.71
-57.05
-80.39
-100.52
-117.43
-131.02
-140.93
-146.66
-147.88
-144.58
-137.26
-126.77
-114.12
-100.28
-85.96
-71.54
-57.14
-42.62
-27.78
-12.45
3.34
19.46
35.62
51.51
66.80
81.15
94.06
104.91
112.89
117.17
117.18
112.76
104.22
92.11
77.01
59.29
39.21
17.20
-5.84
-28.42
-48.81
-65.49
-77.66
-85.32
-89.05
-89.53
-87.23
-82.43
-75.47
-67.00
-58.02
-49.57
-42.40
-36.70
-32.21
-28.49
-25.21
-22.25
-19.64
-17.34
-15.15
-12.77
-9.97
-6.69
-3.16
0.24
3.06
4.87
5.41
4.58
2.50
-0.47
-3.89
-7.33
-10.48
-13.20
-15.39
-16.96
-17.73
-17.57
-16.46
-14.59
-12.32
-10.01
-7.98
-6.44
-5.47
-5.09
-5.18
-5.45
-5.48
-4.82
-3.18
-0.61
2.54
5.80
8.79
11.39
13.65
15.63
17.28
18.42
18.83
18.47
17.50
16.28
15.19
14.42
13.97
13.69
13.43
13.08
12.64
12.17
11.73
11.32
10.95
10.56
10.13
9.64
9.03
8.26
7.27
6.06
4.64
3.09
1.52
0.01
-1.43
-2.84
-4.32
-5.99
-7.87
-9.87
-11.69
-12.95
-13.25
-12.31
-10.09
-6.78
-2.78
1.39
5.31
8.62
11.13
12.79
13.65
13.83
13.56
13.06
12.58
12.30
12.24
12.31
12.34
12.18
11.77
11.19
10.59
10.15
10.00
10.15
10.53
11.00
11.44
11.74
11.87
11.78
11.47
10.90
10.07
9.09
8.15
7.49
7.27
7.41
7.62
7.46
6.66
5.31
3.95
3.43
4.58
7.84
13.13
19.84
27.13
34.14
40.17
44.70
47.29
47.67
45.80
41.96
36.78
31.03
25.28
19.71
14.19
8.58
3.24
-0.97
-2.94
-1.96
1.67
6.67
11.30
14.21
15.26
15.45
16.36
19.17
23.93
29.59
34.72
38.36
40.78
43.37
48.07
56.57
69.69
87.27
108.17
130.47
151.61
168.61
178.75
180.37
173.60
160.42
143.97
127.20
111.74
97.31
82.21
64.50
43.25
19.48
-3.82
-22.52
-32.68
-32.03
-20.89
-2.04
20.13
41.15
57.51
67.05
68.57
61.27
44.59
18.66
-14.94
-52.82
-90.32
-122.81
-147.00
-161.79
-168.06
-167.72
-162.78
-154.67
-144.36
-132.65
-120.61
-109.64
-101.22
-96.44
-95.62
-98.30
-103.36
-109.48
-115.44
-120.25
-123.21
-123.83
-121.83
-117.21
-110.35
-101.86
-92.48
-82.75
-72.97
-63.13
-53.05
-42.51
-31.34
-19.53
-7.27
4.93
16.26
25.70
32.34
35.70
35.99
34.19
31.66
29.74
29.22
30.10
31.67
32.83
32.60
30.44
26.49
21.39
16.11
11.50
8.05
5.69
3.81
1.51
-2.03
-7.16
-13.50
-19.93
-24.84
-26.59
-24.09
-17.27
-7.21
4.00
13.85
20.14
21.69
18.83
13.41
8.40
6.87
10.90
20.61
33.98
47.50
57.47
61.36
58.70
50.89
40.32
29.24
18.94
9.79
1.78
-4.88
-9.52
-11.42
-10.35
-6.96
-2.66
0.91
2.62
2.23
0.30
-2.23
-4.67
-6.89
-9.39
-12.82
-17.56
-23.34
-29.28
-34.27
-37.44
-38.52
-37.88
-36.18
-33.98
-31.50
-28.65
-25.26
-21.41
-17.57
-14.39
-12.45
-11.85
-12.18
-12.68
-12.57
-11.50
-9.67
-7.74
-6.48
-6.45
-7.80
-10.25
-13.26
-16.31
-19.04
-21.34
-23.29
-24.95
-26.29
-27.14
-27.25
-26.50
-24.96
-22.92
-20.72
-18.59
-16.55
-14.39
-11.87
-8.86
-5.51
-2.13
0.90
3.33
5.12
6.41
7.40
8.17
8.71
8.87
8.55
7.73
6.56
5.28
4.17
3.43
3.10
3.10
3.31
3.61
3.96
4.35
4.79
5.24
5.65
5.90
5.91
5.58
4.89
3.86
2.53
0.98
-0.78
-2.70
-4.80
-7.03
-9.33
-11.53
-13.40
-14.62
-14.87
-13.84
-11.40
-7.61
-2.78
2.59
7.90
12.56
16.09
18.26
19.04
18.63
17.37
15.71
14.06
12.75
11.94
11.60
11.53
11.46
11.18
10.67
10.12
9.79
9.89
10.37
10.96
11.29
11.05
10.18
8.85
7.32
5.83
4.52
3.38
2.37
1.42
0.45
-0.65
-1.96
-3.40
-4.74
-5.56
-5.52
-4.40
-2.30
0.41
3.29
5.95
8.13
9.76
10.82
11.28
11.09
10.26
8.90
7.29
5.76
4.63
4.06
4.01
4.30
4.73
5.18
5.62
6.14
6.72
7.24
7.47
7.15
6.19
4.66
2.80
0.92
-0.78
-2.18
-3.28
-4.12
-4.78
-5.35
-5.99
-6.88
-8.20
-9.98
-12.00
-13.82
-14.87
-14.66
-13.05
-10.25
-6.82
-3.37
-0.40
1.92
3.65
4.99
6.05
6.85
7.26
7.22
6.83
6.33
6.00
6.04
6.43
6.99
7.51
7.83
7.93
7.89
7.78
7.58
7.19
6.49
5.40
3.96
2.35
0.80
-0.50
-1.45
-2.09
-2.58
-3.12
-3.93
-5.16
-6.81
-8.75
-10.67
-12.14
-12.74
-12.19
-10.40
-7.63
-4.28
-0.86
2.23
4.79
6.78
8.27
9.33
9.99
10.30
10.34
10.22
10.10
10.02
9.99
9.89
9.65
9.22
8.66
8.07
7.57
7.23
7.05
6.96
6.85
6.55
5.93
4.98
3.81
2.60
1.52
0.63
-0.17
-1.05
-2.20
-3.70
-5.56
-7.66
-9.83
-11.82
-13.29
-13.85
-13.22
-11.34
-8.45
-5.03
-1.60
1.44
3.93
5.94
7.63
9.11
10.42
11.46
12.13
12.33
12.10
11.56
10.91
10.39
10.15
10.23
10.52
10.88
11.16
11.37
11.55
11.79
12.07
12.35
12.52
12.52
12.36
12.08
11.71
11.23
10.57
9.71
8.66
7.57
6.60
5.89
5.45
5.12
4.68
3.87
2.59
0.98
-0.57
-1.51
-1.30
0.33
3.34
7.37
11.89
16.38
20.50
24.14
27.41
30.52
33.65
36.90
40.26
43.59
46.68
49.29
51.19
52.21
52.24
51.24
49.22
46.23
42.38
37.78
32.60
26.97
21.06
15.09
9.31
4.05
-0.44
-4.04
-6.84
-9.12
-11.22
-13.37
-15.57
-17.64
-19.28
-20.24
-20.44
-20.01
-19.19
-18.29
-17.57
-17.19
-17.24
-17.68
-18.42
-19.27
-20.04
-20.50
-20.47
-19.85
-18.65
-16.97
-14.97
-12.86
-10.80
-8.92
-7.22
-5.63
-3.98
-2.06
0.30
3.07
6.06
8.87
11.06
12.33
12.63
12.14
11.20
10.20
9.35
8.76
8.38
8.09
7.77
7.33
6.69
5.90
5.16
4.91
5.75
8.30
12.95
19.58
27.42
35.19
41.36
44.71
44.62
41.25
35.34
27.79
19.30
10.30
1.11
-7.74
-15.35
-20.72
-23.15
-22.70
-20.26
-17.14
-14.53
-12.95
-12.21
-11.69
-10.90
-9.79
-8.89
-8.89
-10.36
-13.38
-17.52
-22.06
-26.21
-29.38
-31.35
-32.17
-32.14
-31.56
-30.69
-29.64
-28.40
-26.99
-25.49
-24.08
-22.94
-22.19
-21.82
-21.65
-21.42
-20.89
-19.92
-18.49
-16.72
-14.80
-12.94
-11.27
-9.87
-8.73
-7.79
-6.99
-6.28
-5.63
-5.02
-4.44
-3.89
-3.43
-3.15
-3.19
-3.66
-4.55
-5.72
-6.87
-7.64
-7.76
-7.17
-5.99
-4.53
-3.04
-1.68
-0.42
0.85
2.23
3.66
5.01
6.11
6.85
7.28
7.54
7.76
8.00
8.22
8.37
8.44
8.52
8.67
8.88
8.99
8.78
8.09
6.93
5.57
4.40
3.75
3.74
4.24
4.97
5.63
6.04
6.14
5.95
5.41
4.46
3.13
1.62
0.40
0.04
1.01
3.46
7.14
11.52
16.05
20.37
24.40
28.25
31.92
35.16
37.37
37.75
35.56
30.40
22.31
11.83
-0.16
-12.63
-24.61
-35.29
-44.10
-50.76
-55.18
-57.48
-57.88
-56.72
-54.41
-51.37
-47.99
-44.53
-41.05
-37.49
-33.73
-29.68
-25.43
-21.14
-16.99
-13.08
-9.36
-5.77
-2.26
1.09
4.13
6.66
8.52
9.59
9.76
8.98
7.20
4.53
1.20
-2.42
-5.95
-9.10
-11.65
-13.44
-14.30
-14.05
-12.61
-10.15
-7.08
-3.99
-1.39
0.45
1.59
2.28
2.77
3.13
3.27
3.03
2.34
1.35
0.38
-0.26
-0.34
0.09
0.83
1.70
2.68
4.00
6.01
8.96
12.71
16.70
20.09
22.15
22.52
21.40
19.39
17.14
15.03
13.06
11.00
8.56
5.61
2.22
-1.50
-5.50
-9.76
-14.24
-18.73
-22.79
-25.88
-27.51
-27.52
-26.14
-23.97
-21.74
-20.12
-19.43
-19.64
-20.39
-21.15
-21.48
-21.13
-20.10
-18.59
-16.86
-15.19
-13.80
-12.82
-12.30
-12.21
-12.40
-12.69
-12.92
-12.96
-12.81
-12.51
-12.11
-11.57
-10.66
-8.90
-5.65
-0.30
7.41
17.22
28.19
39.01
48.38
55.60
60.72
64.43
67.65
70.98
74.56
78.07
81.13
83.51
85.10
85.68
84.68
81.17
74.27
63.72
50.33
35.91
22.76
12.93
7.55
6.68
9.49
14.73
21.22
28.04
34.64
40.72
46.14
50.96
55.38
59.65
63.84
67.44
69.15
66.99
58.92
43.74
21.89
-4.43
-31.84
-56.90
-77.26
-92.14
-102.05
-108.05
-110.93
-110.94
-108.04
-102.37
-94.61
-85.92
-77.58
-70.51
-65.09
-61.18
-58.38
-56.27
-54.62
-53.36
-52.44
-51.81
-51.22
-50.34
-48.70
-45.88
-41.64
-35.98
-29.25
-21.95
-14.64
-7.67
-1.15
4.98
10.85
16.40
21.43
25.67
28.89
31.06
32.32
32.95
33.21
33.40
33.84
34.88
36.90
40.13
44.58
50.05
56.16
62.58
69.03
75.33
81.32
86.75
91.38
95.04
97.59
98.90
98.65
96.22
90.82
81.87
69.52
54.88
40.01
27.36
18.97
15.67
16.77
20.27
23.52
24.08
20.36
11.95
-0.40
-15.16
-30.47
-44.65
-56.56
-65.73
-72.24
-76.42
-78.53
-78.61
-76.63
-72.77
-67.63
-62.18
-57.36
-53.56
-50.35
-46.67
-41.37
-33.95
-24.79
-15.00
-5.84
1.90
8.11
13.16
17.33
20.44
21.68
20.06
14.96
6.63
-3.75
-14.50
-24.00
-31.33
-36.38
-39.70
-42.01
-43.85
-45.42
-46.61
-47.28
-47.41
-47.20
-46.93
-46.89
-47.18
-47.72
-48.29
-48.66
-48.68
-48.34
-47.80
-47.32
-47.17
-47.62
-48.80
-50.70
-53.10
-55.59
-57.61
-58.60
-58.12
-56.01
-52.43
-47.77
-42.52
-37.00
-31.34
-25.44
-19.18
-12.57
-5.89
0.41
5.88
10.39
14.20
17.92
22.29
27.89
34.82
42.66
50.40
56.74
60.33
60.11
55.64
47.27
36.06
23.53
11.21
0.34
-8.36
-14.58
-18.31
-19.68
-18.88
-16.28
-12.45
-8.09
-3.83
-0.05
3.30
6.67
10.85
16.66
24.75
35.35
48.19
62.50
77.12
90.80
102.43
111.33
117.28
120.53
121.58
120.99
119.29
116.90
114.13
111.27
108.45
105.75
103.10
100.54
98.20
96.38
95.45
95.55
96.36
97.10
96.71
94.26
89.30
82.17
73.91
66.00
59.98
57.05
57.91
62.53
69.95
78.24
84.70
86.50
81.65
69.90
52.99
34.16
16.87
3.44
-5.67
-11.69
-16.53
-21.67
-27.53
-33.58
-39.09
-43.84
-48.33
-53.45
-59.90
-67.69
-76.12
-84.02
-90.30
-94.40
-96.34
-96.64
-95.96
-94.82
-93.42
-91.71
-89.60
-87.20
-84.93
-83.27
-82.44
-82.08
-81.36
-79.47
-76.21
-72.35
-69.41
-68.91
-71.53
-76.72
-82.90
-88.33
-91.87
-93.46
-93.86
-94.03
-94.44
-94.88
-94.72
-93.37
-90.65
-86.87
-82.55
-78.04
-73.39
-68.39
-62.88
-57.04
-51.46
-46.93
-44.09
-43.08
-43.47
-44.36
-44.81
-44.22
-42.48
-39.95
-37.17
-34.53
-32.28
-30.21
-27.88
-24.80
-20.86
-16.41
-12.13
-8.75
-6.74
-6.36
-7.42
-9.42
-11.81
-14.09
-15.83
-16.59
-15.88
-13.45
-9.87
-6.09
-3.04
-1.07
0.14
1.58
4.45
9.66
17.24
25.36
32.19
36.97
40.15
42.66
44.98
46.87
47.77
46.74
41.11
29.66
13.49
-4.53
-21.56
-36.14
-48.03
-57.28
-64.68
-74.37
-89.14
-108.98
-131.27
-152.95
-172.06
-187.34
-197.11
-200.67
-201.99
-204.13
-207.49
-210.24
-210.94
-210.32
-210.49
-212.89
-190.24
-129.04
-35.72
67.18
159.02
231.12
283.62
315.76
335.66
347.95
351.00
344.06
329.49
311.92
296.83
285.76
277.49
270.25
261.16
244.89
218.61
183.36
143.42
103.77
67.85
37.63
14.53
-1.81
-14.56
-26.50
-38.81
-51.00
-61.97
-71.21
-78.70
-84.38
-89.13
-94.96
-103.40
-114.69
-127.72
-140.84
-152.99
-164.07
-174.77
-186.51
-200.48
-216.30
-231.59
-242.64
-245.84
-239.09
-222.25
-196.77
-164.89
-128.65
-89.58
-48.95
-8.46
29.51
62.16
87.24
103.78
112.44
115.03
113.72
110.28
105.97
101.97
99.65
100.65
106.27
116.75
130.90
146.46
160.98
172.60
180.43
184.26
184.15
180.22
172.84
162.87
151.70
140.84
131.24
122.89
114.87
106.02
95.67
84.26
73.23
64.65
60.48
61.92
69.13
81.08
95.85
111.02
124.34
134.19
139.84
141.39
139.26
133.86
125.34
113.80
99.65
83.83
67.66
52.52
39.27
28.05
18.36
9.52
1.09
-6.90
-14.05
-19.95
-24.53
-28.17
-31.59
-35.47
-40.22
-45.80
-51.82
-57.77
-63.27
-68.14
-72.47
-76.43
-80.19
-83.84
-87.44
-91.02
-94.57
-97.84
-100.21
-100.76
-98.46
-92.61
-83.19
-70.98
-57.34
-43.81
-31.64
-21.58
-13.84
-8.34
-4.84
-3.07
-2.79
-3.65
-5.31
-7.43
-9.72
-11.97
-14.05
-15.96
-17.78
-19.68
-21.79
-24.09
-26.36
-28.25
-29.42
-29.78
-29.56
-29.25
-29.35
-30.14
-31.47
-32.87
-33.78
-33.83
-33.09
-32.10
-31.63
-32.48
-35.14
-39.61
-45.31
-51.11
-55.63
-57.58
-56.12
-51.24
-43.71
-34.87
-26.22
-18.94
-13.64
-10.37
-8.84
-8.68
-9.63
-11.56
-14.30
-17.56
-20.85
-23.60
-25.27
-25.50
-24.17
-21.41
-17.56
-13.09
-8.53
-4.30
-0.71
2.15
4.38
6.20
7.84
9.43
11.01
12.51
13.81
14.71
14.95
14.19
12.04
8.15
2.31
-5.38
-14.51
-24.27
-33.60
-41.35
-46.44
-48.13
-46.06
-40.37
-31.63
-20.82
-9.23
1.79
11.06
17.80
21.86
23.63
23.85
23.29
22.48
21.64
20.73
19.67
18.42
17.10
15.88
14.86
14.09
13.48
12.89
12.12
10.91
8.97
6.16
2.52
-1.61
-5.65
-9.00
-11.28
-12.49
-12.99
-13.37
-14.19
-15.90
-18.77
-22.87
-28.05
-33.78
-39.15
-42.96
-44.10
-41.91
-36.46
-28.54
-19.40
-10.28
-2.11
4.60
9.69
13.17
15.13
15.70
15.08
13.63
11.86
10.38
9.77
10.40
12.22
14.67
16.81
17.58
16.29
12.88
8.00
2.74
-1.82
-4.97
-6.55
-6.92
-6.73
-6.73
-7.54
-9.62
-13.16
-18.10
-24.21
-31.12
-38.43
-45.73
-52.48
-57.94
-61.18
-61.31
-57.72
-50.42
-39.97
-27.45
-14.02
-0.66
12.05
23.97
35.36
46.72
58.74
72.11
87.49
105.30
125.48
147.20
168.75
187.63
201.07
206.75
203.57
192.08
174.36
153.39
132.10
112.54
95.53
80.84
67.76
55.66
44.28
33.68
23.91
14.79
5.82
-3.59
-13.88
-25.13
-37.07
-49.25
-61.13
-72.11
-81.46
-88.26
-91.56
-90.70
-85.62
-77.01
-66.21
-54.95
-45.04
-38.13
-35.49
-37.72
-44.50
-54.48
-65.51
-75.16
-81.59
-84.11
-83.42
-81.19
-79.36
-79.41
-82.08
-87.34
-94.80
-104.00
-114.65
-126.50
-139.30
-152.76
-166.79
-181.54
-197.36
-214.32
-231.65
-247.25
-258.10
-260.98
-253.71
-236.05
-209.76
-177.85
-143.29
-108.00
-72.50
-36.46
0.38
37.48
73.39
106.23
134.45
157.26
174.67
187.09
194.88
198.21
197.43
193.63
188.99
186.51
189.06
198.17
213.18
231.21
248.14
259.95
264.04
259.91
248.92
233.46
215.94
197.92
179.90
161.59
142.54
122.81
103.19
84.94
69.18
56.16
45.00
34.07
21.84
7.72
-7.63
-22.66
-35.79
-46.06
-53.45
-58.59
-62.30
-65.12
-67.31
-68.83
-69.51
-69.06
-67.02
-62.87
-56.34
-47.73
-38.03
-28.76
-21.45
-17.12
-15.98
-17.50
-20.69
-24.49
-27.98
-30.54
-31.86
-31.97
-31.34
-30.72
-30.84
-32.08
-34.19
-36.32
-37.45
-36.82
-34.33
-30.50
-26.21
-22.26
-19.10
-16.81
-15.24
-14.22
-13.69
-13.58
-13.81
-14.22
-14.57
-14.68
-14.42
-13.65
-12.18
-9.71
-6.01
-1.13
4.66
10.84
16.91
22.57
27.65
31.93
34.91
35.84
33.85
28.48
19.90
9.07
-2.55
-13.37
-22.07
-27.74
-29.97
-28.80
-24.73
-18.73
-12.05
-5.89
-1.18
1.68
2.71
2.11
0.01
-3.53
-8.50
-14.59
-21.19
-27.44
-32.59
-36.35
-39.02
-41.29
-43.89
-47.28
-51.64
-56.95
-63.25
-70.66
-79.23
-88.81
-99.15
-110.17
-122.37
-136.66
-153.80
-173.41
-193.32
-209.81
-218.74
-217.08
-204.03
-181.09
-151.20
-117.32
-81.41
-44.12
-5.25
35.41
77.38
119.32
159.33
195.60
226.81
252.05
270.52
281.00
281.80
271.27
248.71
215.20
173.76
128.61
83.98
42.85
6.47
-25.39
-53.63
-79.04
-101.82
-121.42
-136.72
-146.36
-149.29
-145.34
-135.55
-122.02
-107.33
-93.70
-82.47
-73.99
-68.10
-64.57
-63.36
-64.47
-67.60
-71.84
-75.63
-77.05
-74.26
-66.01
-52.14
-33.71
-12.95
7.43
25.10
38.92
49.21
57.32
64.72
72.21
79.56
85.98
90.72
93.66
95.30
96.47
97.86
99.67
101.73
103.58
104.79
105.09
104.43
102.96
100.97
98.70
96.02
92.37
86.73
78.11
65.98
50.73
33.60
16.34
0.66
-12.16
-21.37
-26.64
-27.95
-25.55
-20.02
-12.33
-3.70
4.69
11.97
17.80
22.21
25.42
27.53
28.54
28.45
27.41
25.83
24.28
23.26
23.07
23.66
24.73
25.85
26.67
27.00
26.82
26.26
25.61
25.20
25.32
26.04
27.03
27.48
26.40
22.97
16.97
9.06
0.55
-7.00
-12.45
-15.37
-16.15
-15.58
-14.52
-13.56
-13.00
-12.88
-13.10
-13.43
-13.51
-12.97
-11.56
-9.38
-6.95
-4.97
-3.98
-4.11
-4.94
-5.78
-6.04
-5.53
-4.46
-3.17
-1.70
0.41
3.96
9.68
17.83
28.09
39.80
52.33
65.30
78.46
91.43
103.48
113.61
120.86
124.79
125.58
123.94
120.57
115.63
108.61
98.54
84.60
66.79
46.30
25.25
5.95
-10.06
-22.56
-32.61
-41.75
-50.98
-60.04
-67.53
-71.81
-72.13
-69.37
-65.73
-63.63
-64.36
-67.36
-70.38
-70.72
-66.49
-57.55
-45.46
-32.57
-20.86
-11.03
-2.32
6.95
18.43
32.86
49.63
67.01
82.59
94.11
99.86
98.83
90.61
75.36
54.25
29.88
6.41
-11.28
-19.18
-15.95
-3.82
12.05
25.47
31.64
28.66
17.66
1.60
-16.33
-33.76
-49.28
-62.08
-71.48
-76.98
-78.54
-76.81
-72.96
-68.23
-63.41
-58.66
-53.66
-47.97
-41.45
-34.36
-27.34
-21.11
-16.30
-13.31
-12.24
-12.94
-15.03
-17.95
-21.04
-23.60
-25.09
-25.23
-24.05
-21.85
-19.09
-16.11
-13.02
-9.55
-5.15
0.76
8.38
17.25
26.19
33.48
37.42
37.03
32.49
25.25
17.48
11.25
7.74
6.93
7.96
9.91
12.60
16.91
24.38
36.59
54.41
77.62
104.84
133.53
160.11
180.17
189.18
183.69
162.76
128.81
87.36
45.40
9.20
-17.52
-34.21
-42.70
-45.73
-45.55
-43.43
-40.01
-35.90
-32.08
-29.63
-29.19
-30.47
-32.27
-33.05
-31.75
-28.37
-23.92
-19.95
-17.84
-18.21
-20.78
-24.64
-28.66
-31.85
-33.53
-33.32
-31.03
-26.56
-19.82
-10.64
1.07
15.14
30.76
46.16
58.73
65.46
63.83
52.77
33.12
7.44
-20.69
-47.71
-70.89
-88.70
-100.80
-107.61
-110.02
-108.98
-105.47
-100.39
-94.56
-88.72
-83.50
-79.35
-76.43
-74.65
-73.70
-73.18
-72.84
-72.61
-72.64
-73.24
-74.67
-77.08
-80.39
-84.25
-88.11
-91.25
-92.97
-92.75
-90.45
-86.37
-81.19
-75.74
-70.74
-66.62
-63.49
-61.27
-59.87
-59.24
-59.42
-60.39
-61.97
-63.76
-65.28
-66.16
-66.31
-65.92
-65.37
-65.06
-65.12
-65.41
-65.58
-65.19
-63.97
-61.89
-59.12
-55.92
-52.62
-49.60
-47.34
-46.23
-46.34
-47.12
-47.35
-45.48
-40.20
-30.93
-18.07
-2.84
13.21
28.64
42.45
54.14
63.56
70.91
76.60
81.26
85.53
89.81
94.05
97.70
99.98
100.25
98.24
94.21
88.84
83.02
77.63
73.29
70.28
68.55
67.86
67.99
68.94
71.06
75.08
81.86
92.06
105.74
121.95
138.78
153.70
164.45
169.84
170.46
168.63
167.80
171.29
181.01
196.44
214.44
229.96
237.58
233.33
216.09
187.83
152.81
115.70
79.84
46.35
14.54
-16.84
-48.21
-78.60
-106.19
-129.39
-147.70
-161.84
-172.93
-181.46
-186.93
-188.05
-183.66
-173.26
-157.02
-135.24
-108.22
-76.81
-43.22
-11.54
12.98
25.86
25.47
14.08
-2.85
-18.94
-29.35
-32.10
-27.84
-18.62
-6.53
7.08
21.53
36.50
51.61
66.41
80.63
94.17
106.94
118.89
129.95
139.95
148.51
154.44
155.70
150.27
137.38
118.43
97.13
78.57
67.18
65.17
71.15
80.59
88.59
92.12
90.44
84.48
75.29
62.80
46.40
25.36
-0.05
-26.54
-48.78
-62.23
-65.54
-61.08
-53.72
-47.90
-46.44
-50.53
-58.68
-67.92
-75.69
-80.18
-80.06
-78.88
-78.04
-72.60
-62.85
-52.85
-44.97
-40.39
-39.27
-41.07
-44.95
-49.34
-52.59
-53.81
-51.71
-45.06
-34.14
-21.49
-10.97
-4.50
-1.44
0.05
1.31
3.43
6.86
10.81
13.85
14.76
12.98
8.87
3.27
-2.96
-8.34
-11.14
-10.25
-5.57
2.10
11.45
21.05
29.45
35.16
37.05
34.58
27.76
17.43
5.14
-7.31
-18.64
-28.49
-37.48
-46.48
-56.23
-67.01
-78.82
-91.59
-105.38
-120.40
-136.70
-153.86
-170.61
-184.75
-193.37
-193.47
-183.00
-161.83
-132.42
-99.52
-68.88
-45.57
-32.33
-28.90
-32.73
-40.35
-48.92
-56.87
-63.67
-68.96
-71.95
-71.45
-66.66
-57.98
-47.33
-37.29
-29.83
-25.31
-22.43
-19.42
-15.37
-10.97
-7.99
-7.97
-10.99
-15.36
-18.42
-17.88
-12.75
-3.54
8.37
21.63
35.42
49.33
62.78
74.69
83.53
87.97
87.57
83.18
76.81
70.82
66.88
65.22
64.48
62.53
57.45
48.52
36.50
23.17
10.52
0.11
-7.13
-10.82
-11.03
-8.28
-3.69
1.19
4.81
6.18
5.14
2.13
-2.38
-8.14
-14.98
-22.24
-28.44
-31.55
-29.85
-22.94
-12.03
0.54
12.43
22.28
29.97
36.27
42.06
47.97
54.20
60.85
67.98
75.39
82.24
86.81
86.89
80.68
67.88
50.12
30.73
13.52
1.25
-5.42
-8.12
-9.93
-13.83
-21.27
-31.72
-43.08
-52.96
-59.63
-62.43
-61.17
-55.59
-45.21
-29.99
-11.34
7.52
22.28
29.40
27.78
19.38
8.24
-1.54
-7.56
-9.69
-9.21
-7.38
-4.55
-0.29
5.83
13.47
21.46
28.31
32.93
35.05
34.93
32.84
28.64
21.67
11.08
-3.72
-22.44
-43.60
-64.32
-80.75
-88.94
-86.15
-72.16
-49.91
-25.04
-4.32
6.65
5.34
-6.95
-25.79
-45.38
-60.69
-68.89
-69.87
-65.58
-58.91
-52.30
-46.77
-41.52
-34.19
-21.80
-2.04
25.43
58.54
93.20
124.67
149.25
165.40
173.78
176.35
175.06
170.83
163.36
151.60
134.54
111.69
83.54
51.71
18.98
-10.95
-34.64
-50.33
-59.19
-65.25
-73.67
-88.08
-108.41
-130.79
-149.39
-159.31
-158.50
-147.92
-129.98
-106.89
-80.07
-50.88
-21.77
3.36
20.26
26.25
21.53
9.18
-6.29
-20.92
-32.59
-41.13
-47.50
-52.80
-57.63
-61.97
-65.15
-65.85
-62.28
-52.73
-36.44
-14.50
9.68
31.08
44.74
47.74
40.37
25.92
9.15
-5.67
-16.26
-22.67
-26.66
-30.50
-35.83
-43.20
-52.20
-61.87
-70.94
-78.03
-81.43
-79.35
-70.07
-52.32
-26.12
6.51
41.57
73.91
98.68
113.01
116.58
112.04
104.61
100.57
105.12
120.76
146.53
178.30
210.14
235.47
249.24
249.73
238.76
220.27
198.45
176.56
156.20
137.46
118.57
97.13
71.74
42.72
11.69
-18.67
-44.81
-65.28
-75.20
-71.72
-58.43
-43.58
-34.05
-32.27
-37.04
-44.77
-51.37
-54.50
-53.97
-52.07
-51.73
-54.99
-62.57
-73.69
-86.11
-96.78
-103.35
-105.11
-103.12
-99.02
-94.66
-92.29
-94.40
-102.66
-112.36
-117.01
-110.56
-91.41
-62.72
-30.03
1.32
27.53
47.33
61.58
71.38
77.18
77.70
71.64
59.44
44.04
29.95
22.08
23.95
35.44
52.67
69.19
78.79
76.93
62.78
38.54
8.85
-21.10
-47.86
-70.33
-89.41
-106.89
-123.30
-137.26
-147.52
-153.36
-155.04
-154.01
-151.96
-149.90
-148.19
-145.56
-139.65
-129.73
-115.88
-98.14
-75.62
-46.15
-4.08
48.60
101.74
149.83
186.79
207.81
211.67
200.83
180.10
154.02
124.55
92.40
58.94
25.73
-4.27
-27.85
-43.00
-49.15
-47.45
-41.11
-33.72
-27.77
-25.25
-26.08
-28.53
-30.04
-27.41
-18.17
-2.32
18.15
40.75
62.69
82.04
96.77
99.83
86.11
58.10
26.29
2.95
-3.71
4.30
21.81
42.62
61.85
76.00
84.17
86.98
85.20
79.61
70.73
59.59
46.89
32.84
17.79
2.04
-14.69
-32.98
-53.09
-74.64
-96.43
-117.43
-136.97
-153.80
-165.62
-169.46
-162.49
-143.23
-112.86
-75.61
-38.79
-10.79
1.69
-4.05
-26.04
-58.38
-92.81
-120.69
-134.66
-130.06
-105.84
-64.95
-14.08
37.35
79.40
104.43
109.49
97.21
74.80
51.82
37.54
38.82
58.58
95.09
142.15
190.29
229.20
250.93
252.54
237.02
211.61
184.28
160.01
138.99
117.57
91.48
58.81
21.37
-16.70
-51.56
-81.90
-109.05
-135.06
-160.28
-182.00
-195.43
-196.14
-182.67
-157.55
-126.23
-94.66
-66.82
-43.69
-23.71
-4.55
15.31
35.69
55.05
71.33
83.00
89.55
91.62
90.62
88.23
85.90
84.42
83.73
83.02
81.11
77.01
70.39
61.82
52.52
43.83
36.61
30.93
26.21
21.77
17.29
13.10
9.98
8.72
9.85
13.47
19.11
25.66
31.26
33.47
29.76
18.32
-1.12
-26.95
-55.94
-84.10
-107.78
-124.50
-133.24
-134.33
-129.26
-120.44
-110.94
-104.06
-102.52
-107.72
-119.14
-134.31
-149.51
-160.88
-165.66
-163.08
-154.53
-142.96
-131.51
-122.25
-115.41
-109.44
-101.66
-89.34
-70.51
-44.31
-10.75
29.43
74.59
121.50
164.96
198.31
215.47
213.51
194.52
165.33
134.83
110.20
94.15
84.69
77.57
69.53
60.45
52.87
49.70
51.55
55.82
58.16
55.04
45.86
33.27
21.62
14.76
14.44
20.06
29.54
40.46
50.80
59.22
65.02
68.04
68.65
67.60
65.82
63.90
61.64
58.14
52.12
42.49
28.65
10.60
-11.10
-35.10
-58.89
-78.85
-90.99
-92.51
-83.18
-65.86
-45.34
-26.33
-11.63
-1.49
5.44
10.58
14.32
16.06
15.13
11.68
6.77
1.68
-2.95
-7.32
-11.99
-17.22
-22.41
-26.39
-28.04
-26.73
-22.46
-15.59
-6.60
3.99
15.39
26.48
35.87
42.27
45.09
44.92
43.65
44.03
48.58
58.31
71.85
85.29
93.22
90.37
73.41
42.01
-1.02
-50.62
-100.86
-146.21
-182.65
-208.32
-223.84
-232.18
-237.68
-244.62
-255.54
-270.10
-285.04
-295.36
-295.92
-283.06
-255.65
-215.41
-166.74
-115.92
-69.88
-34.55
-13.13
-5.15
-6.55
-11.13
-12.87
-7.89
4.58
22.53
42.41
60.64
74.54
82.78
85.36
83.36
78.81
74.00
70.80
69.87
70.36
69.96
65.53
54.17
34.26
6.48
-25.62
-55.92
-77.20
-83.34
-71.80
-45.11
-10.62
21.53
41.61
43.30
25.45
-8.16
-50.56
-94.06
-132.31
-161.50
-180.34
-189.41
-190.12
-183.90
-171.79
-154.50
-132.59
-106.85
-78.37
-48.50
-18.54
10.33
37.09
60.84
80.69
95.84
105.69
110.24
110.26
107.39
103.80
101.52
101.72
104.23
107.62
109.87
109.26
105.10
97.87
88.77
79.14
70.02
61.99
55.33
50.21
46.60
44.25
42.64
41.24
39.81
38.55
37.78
37.50
37.09
35.42
31.57
25.54
18.57
12.69
9.81
10.77
15.05
21.13
27.41
32.93
37.55
41.78
46.08
50.50
54.77
58.46
61.24
62.82
62.83
60.88
56.91
51.53
46.17
42.64
42.25
45.14
49.98
54.54
56.69
55.37
50.91
44.62
37.98
31.92
26.63
21.82
17.20
12.81
9.00
6.13
4.35
3.44
2.84
2.05
0.81
-0.71
-2.09
-2.90
-3.02
-2.69
-2.41
-2.66
-3.64
-5.19
-6.87
-8.21
-8.86
-8.72
-7.88
-6.58
-5.08
-3.56
-2.15
-0.91
0.20
1.25
2.33
3.48
4.66
5.70
6.37
6.36
5.45
3.56
0.86
-2.23
-5.16
-7.39
-8.65
-9.00
-8.89
-8.91
-9.57
-10.95
-12.69
-14.10
-14.40
-13.03
-9.71
-4.46
2.32
9.84
16.75
21.35
22.07
18.16
10.23
0.31
-8.87
-14.89
-16.51
-13.97
-8.48
-1.48
6.12
14.02
22.27
30.87
39.54
47.86
55.52
62.44
68.64
74.02
78.16
80.44
80.36
77.82
73.23
67.41
61.19
55.18
49.60
44.38
39.28
34.10
28.77
23.31
17.79
12.27
6.76
1.25
-4.28
-9.82
-15.34
-20.89
-26.56
-32.54
-39.21
-47.13
-57.13
-70.08
-86.44
-105.50
-124.89
-140.64
-148.29
-144.63
-129.41
-105.96
-80.22
-58.42
-44.70
-39.52
-39.82
-40.57
-36.87
-25.65
-6.53
18.24
44.23
65.73
76.90
73.36
54.02
22.45
-13.20
-42.23
-54.84
-45.79
-16.39
26.18
71.99
112.28
142.12
160.75
169.73
170.23
161.63
142.09
110.83
70.31
26.77
-11.56
-37.71
-48.93
-47.50
-39.31
-30.84
-26.46
-27.23
-31.99
-39.28
-49.02
-62.44
-80.37
-100.89
-118.23
-124.15
-111.52
-78.32
-29.49
24.44
71.63
103.84
119.06
120.73
114.16
102.87
87.04
64.98
36.07
2.99
-28.47
-52.01
-63.95
-64.88
-58.91
-51.29
-45.92
-44.12
-45.48
-48.97
-54.38
-62.21
-72.49
-83.27
-89.97
-86.45
-67.65
-32.49
14.71
65.00
108.12
136.53
147.74
144.01
129.82
108.77
82.33
50.74
15.31
-20.03
-49.11
-66.12
-68.56
-58.63
-42.43
-27.23
-18.63
-18.99
-27.84
-43.26
-63.45
-87.01
-112.23
-135.87
-152.69
-156.43
-142.13
-108.85
-60.92
-7.05
42.77
81.05
104.90
115.71
116.71
110.19
96.35
74.39
44.79
10.96
-21.08
-44.97
-56.81
-56.72
-48.41
-37.12
-27.24
-21.07
-19.11
-21.05
-26.86
-36.78
-50.39
-65.39
-77.08
-79.47
-67.73
-40.82
-2.61
39.09
75.77
101.59
115.13
118.63
115.28
106.67
92.18
70.57
42.35
11.25
-16.63
-35.55
-42.91
-40.40
-32.96
-26.27
-24.29
-28.34
-37.72
-51.05
-67.47
-86.56
-107.49
-127.91
-143.53
-148.99
-139.62
-113.46
-72.40
-21.98
30.33
77.43
114.35
138.73
150.11
148.68
134.71
109.00
73.88
33.96
-4.37
-34.57
-52.11
-55.96
-48.72
-35.46
-21.72
-12.22
-10.09
-16.91
-32.86
-56.53
-84.46
-111.09
-129.75
-134.64
-122.99
-96.36
-60.32
-22.77
8.75
29.31
37.69
35.95
28.01
17.82
8.13
0.17
-5.98
-10.55
-13.53
-14.62
-13.55
-10.58
-6.78
-3.85
-3.43
-6.49
-12.81
-21.27
-30.37
-38.69
-45.17
-49.03
-49.47
-45.64
-36.76
-22.41
-3.04
19.83
43.63
65.14
81.23
89.76
90.19
83.69
72.73
60.08
47.96
37.38
28.26
19.85
11.54
3.29
-4.31
-10.34
-14.08
-15.33
-14.54
-12.56
-10.41
-8.93
-8.48
-8.78
-8.91
-7.49
-3.21
4.57
15.47
28.05
40.31
50.33
56.88
59.63
59.06
56.14
52.02
47.79
44.26
41.68
39.60
36.99
32.67
25.99
17.25
7.74
-0.83
-7.08
-10.60
-12.00
-12.49
-13.14
-14.38
-15.90
-16.94
-16.75
-15.00
-11.82
-7.69
-3.07
1.80
6.98
12.62
18.66
24.69
29.98
33.77
35.67
35.82
34.87
33.73
33.07
33.14
33.66
34.10
33.98
33.08
31.50
29.54
27.44
25.35
23.43
21.99
21.49
22.34
24.54
27.58
30.59
32.79
33.91
34.30
34.58
35.11
35.63
35.32
33.37
29.56
24.54
19.63
16.12
14.63
14.78
15.47
15.41
13.75
10.40
6.06
1.83
-1.32
-3.01
-3.58
-4.04
-5.56
-9.10
-14.93
-22.60
-31.01
-38.79
-44.63
-47.65
-47.68
-45.35
-41.98
-39.43
-39.61
-43.79
-51.98
-62.51
-72.34
-77.98
-76.92
-68.70
-55.22
-40.02
-26.72
-17.47
-12.16
-8.73
-4.42
2.79
13.26
25.62
37.51
46.51
50.97
50.38
45.50
38.27
31.41
27.89
29.92
37.98
50.21
62.61
70.39
69.72
59.27
40.55
16.97
-7.76
-31.06
-51.86
-70.00
-85.31
-96.84
-103.18
-103.22
-96.88
-85.24
-70.14
-53.59
-37.46
-23.59
-13.99
-10.49
-13.89
-22.87
-33.68
-41.03
-40.10
-28.63
-8.18
16.43
38.96
54.27
59.98
56.80
47.59
35.77
24.06
14.03
6.33
1.24
-0.83
0.61
5.70
14.07
24.60
35.77
46.38
56.22
66.41
78.65
93.82
110.49
124.76
131.60
127.41
112.20
89.91
66.61
47.42
34.18
25.18
17.14
7.88
-2.15
-10.43
-14.53
-14.29
-12.39
-12.93
-18.96
-30.70
-45.42
-58.93
-67.81
-71.00
-69.93
-67.50
-66.45
-68.38
-73.64
-82.07
-93.47
-107.45
-122.51
-135.41
-141.64
-137.23
-120.88
-95.23
-66.15
-40.29
-22.40
-13.80
-12.87
-16.77
-23.22
-30.94
-39.10
-46.26
-50.24
-48.95
-41.74
-30.05
-16.84
-4.92
4.49
12.44
21.52
34.35
51.89
72.52
92.27
106.20
110.31
103.22
86.92
66.04
46.16
31.59
23.93
21.83
22.15
21.71
18.88
14.00
8.93
5.76
5.71
8.74
13.68
18.95
23.05
24.88
23.73
19.13
10.80
-1.23
-16.27
-32.94
-49.30
-63.16
-72.55
-76.18
-73.71
-65.81
-54.08
-40.64
-27.50
-16.10
-6.80
1.03
8.48
16.46
25.20
34.19
42.56
49.56
54.85
58.61
61.40
63.89
66.56
69.60
72.95
76.32
79.31
81.26
81.75
80.80
78.85
76.41
73.69
70.49
66.34
60.78
53.34
44.08
33.70
23.21
13.36
4.52
-3.09
-9.07
-13.03
-15.62
-18.44
-23.57
-32.83
-46.72
-63.68
-80.21
-92.13
-96.97
-96.06
-93.39
-93.13
-97.31
-104.88
-112.54
-116.47
-114.10
-100.60
-75.55
-43.54
-11.65
15.00
34.78
47.75
54.09
54.11
48.52
38.19
24.90
11.27
0.00
-6.94
-8.90
-6.95
-1.55
6.40
15.16
23.28
30.27
36.58
42.77
48.54
52.67
53.72
50.48
42.53
30.85
17.48
4.47
-5.80
-12.59
-16.43
-18.40
-19.63
-20.88
-22.38
-23.96
-25.29
-26.06
-26.22
-25.72
-24.38
-22.14
-18.96
-14.65
-8.70
-0.31
11.26
26.12
43.57
62.27
80.45
96.40
108.84
117.07
121.02
121.14
118.25
113.32
107.24
100.47
92.89
84.02
73.51
61.62
49.34
37.94
28.28
20.14
12.37
3.44
-7.63
-20.73
-34.75
-48.23
-60.10
-69.98
-78.06
-84.80
-90.51
-95.35
-99.38
-102.77
-105.78
-108.67
-111.47
-114.00
-116.01
-117.38
-118.19
-118.64
-118.80
-118.48
-117.19
-114.50
-110.06
-103.58
-94.74
-83.25
-69.13
-52.84
-35.51
-18.67
-3.92
7.83
16.92
24.75
33.05
42.78
53.71
64.70
74.54
82.23
87.66
91.42
94.33
96.86
98.28
97.71
94.69
89.91
83.54
75.51
65.31
52.42
36.71
17.61
-4.11
-26.30
-45.35
-59.85
-70.14
-77.91
-84.90
-92.22
-101.89
-114.20
-127.55
-137.83
-143.69
-145.46
-144.70
-142.56
-139.61
-138.15
-139.19
-141.91
-142.44
-140.20
-136.24
-132.67
-130.93
-116.71
-83.93
-36.64
1.52
27.99
44.40
56.71
66.29
74.11
81.86
89.95
100.25
115.41
138.93
168.20
196.86
217.19
224.12
216.53
195.25
164.20
129.03
96.83
70.65
51.14
37.46
29.05
25.45
24.76
24.99
24.46
23.07
19.79
13.95
5.43
-4.67
-14.61
-23.07
-28.92
-31.40
-29.94
-25.45
-19.48
-13.49
-8.12
-3.12
1.95
7.46
13.46
19.96
26.93
34.77
44.06
54.93
66.25
75.56
79.90
77.30
67.87
53.92
38.86
25.47
14.69
5.48
-4.13
-15.50
-28.42
-41.22
-51.78
-58.78
-62.39
-64.02
-65.51
-68.20
-72.50
-78.05
-84.20
-90.37
-96.14
-101.11
-104.63
-105.95
-104.53
-100.41
-94.32
-87.46
-80.99
-75.47
-70.61
-65.35
-58.28
-48.33
-35.34
-20.24
-4.85
8.69
18.67
24.31
25.92
24.58
21.69
18.48
15.80
14.15
13.92
15.72
20.41
29.08
42.76
61.89
85.57
110.94
133.08
145.96
144.44
126.37
94.02
54.01
15.40
-13.16
-26.08
-22.52
-6.12
16.65
38.89
55.37
63.70
64.14
58.63
49.68
39.44
29.47
20.86
14.51
11.27
11.75
15.98
23.21
32.16
41.27
49.12
54.42
56.21
53.90
47.64
38.42
27.93
18.00
9.78
3.42
-2.03
-7.97
-15.44
-24.52
-34.30
-43.29
-50.14
-54.22
-55.83
-56.01
-56.13
-57.36
-60.27
-64.75
-70.12
-75.53
-80.17
-83.29
-84.11
-81.73
-75.27
-64.34
-49.28
-31.38
-12.53
5.31
20.69
32.86
41.68
47.24
49.66
49.05
45.96
41.55
37.53
35.68
37.17
42.29
50.43
60.35
70.51
79.44
85.90
88.97
87.93
82.28
71.86
57.06
38.95
19.12
-0.44
-17.63
-30.68
-38.47
-40.99
-39.26
-35.21
-31.31
-30.43
-34.78
-45.23
-60.90
-79.30
-97.57
-113.02
-123.92
-129.72
-131.51
-130.81
-128.84
-126.24
-122.97
-119.46
-115.91
-111.98
-106.88
-100.46
-92.48
-82.44
-69.92
-54.45
-37.25
-19.98
-4.21
8.54
15.98
16.73
11.17
1.17
-10.23
-21.73
-32.99
-44.15
-48.18
-40.92
-23.58
-1.99
13.48
23.66
30.08
33.34
34.61
33.97
30.51
23.95
15.10
5.19
-3.64
-10.43
-14.06
-13.23
-6.66
3.42
12.76
19.74
24.26
28.34
34.05
43.21
56.30
71.55
84.82
91.96
90.69
81.22
66.49
50.13
35.67
25.74
21.51
22.60
27.91
36.03
44.88
52.09
55.05
52.19
44.08
33.52
24.49
20.69
23.88
33.12
45.70
58.58
69.88
79.17
86.74
92.60
96.05
96.09
92.04
84.16
73.34
60.50
45.92
29.27
10.27
-10.54
-31.58
-50.73
-66.11
-76.82
-83.17
-86.27
-87.42
-87.46
-86.65
-84.81
-81.78
-77.77
-73.38
-69.29
-65.77
-62.35
-57.97
-51.49
-42.30
-30.51
-16.87
-2.23
12.73
27.61
42.17
56.25
69.81
82.97
95.93
108.56
120.02
128.73
132.80
130.79
122.30
108.10
89.80
69.46
49.19
30.93
16.18
5.44
-2.17
-8.91
-17.72
-30.90
-49.05
-70.66
-92.79
-112.11
-125.95
-132.73
-131.80
-123.17
-107.43
-85.89
-60.68
-34.52
-10.08
10.69
27.00
39.14
48.04
54.68
59.64
63.04
64.77
64.79
63.24
60.40
56.39
51.18
44.72
37.20
29.21
21.58
14.99
9.71
5.58
2.23
-0.70
-3.48
-6.47
-10.03
-14.34
-19.14
-23.66
-27.06
-28.97
-29.89
-31.03
-33.68
-38.66
-46.06
-55.72
-67.57
-81.80
-98.41
-116.46
-133.65
-146.70
-152.26
-148.01
-133.41
-109.91
-80.61
-49.60
-21.03
1.84
17.55
26.74
31.71
35.33
39.72
45.53
51.95
57.54
61.05
61.98
60.44
56.71
50.97
43.45
34.90
26.79
21.09
19.32
21.72
26.89
32.38
35.94
36.44
34.16
30.03
24.79
18.51
10.85
1.63
-8.75
-19.46
-29.86
-39.90
-50.17
-61.31
-73.29
-84.99
-94.30
-98.58
-95.27
-82.47
-59.60
-27.97
8.86
45.52
75.97
95.41
101.80
96.34
82.62
64.90
46.48
29.08
13.36
0.02
-9.43
-12.82
-8.48
3.63
21.35
41.08
59.31
73.93
84.68
92.49
98.19
101.66
102.02
98.54
91.64
83.06
75.06
69.26
65.65
62.74
58.35
50.73
39.20
24.15
6.56
-12.39
-31.55
-49.78
-65.97
-78.95
-87.49
-90.32
-86.36
-75.20
-57.54
-35.51
-12.33
8.53
24.31
33.65
36.70
34.65
29.18
22.03
14.73
8.66
4.79
3.56
4.73
7.58
11.22
14.99
18.58
21.95
25.15
28.35
31.76
35.54
39.63
43.57
46.50
47.43
45.72
41.33
34.91
27.36
19.46
11.71
4.38
-2.30
-8.24
-13.70
-19.40
-26.24
-34.82
-44.85
-55.00
-63.22
-67.55
-66.78
-60.75
-50.23
-36.25
-20.10
-3.36
12.01
23.77
29.96
29.78
24.12
15.10
6.01
-0.64
-3.68
-3.42
-1.32
0.80
1.30
-0.74
-5.97
-13.23
-21.53
-29.75
-36.86
-41.98
-44.50
-44.16
-41.25
-37.43
-33.07
-29.64
-28.24
-29.29
-32.49
-37.25
-43.31
-51.08
-62.47
-76.88
-93.91
-111.68
-126.96
-136.08
-135.82
-124.28
-94.68
-58.28
-17.55
22.43
56.36
80.10
91.75
92.24
84.83
73.83
62.06
53.11
47.57
44.81
43.79
43.72
44.13
44.55
44.23
41.39
36.30
29.05
20.67
12.86
7.19
4.23
3.24
2.46
-0.45
-5.75
-12.81
-19.83
-24.69
-26.08
-24.15
-20.30
-16.48
-14.36
-13.95
-14.44
-14.53
-13.05
-9.59
-4.51
1.42
7.46
13.17
18.58
23.58
27.70
30.26
30.56
28.31
23.80
17.72
10.79
3.58
-3.48
-9.75
-14.11
-14.98
-11.00
-1.83
11.26
25.56
37.78
45.20
46.67
42.83
35.61
27.34
19.79
13.66
8.48
3.12
-3.64
-12.42
-22.95
-34.17
-44.68
-53.34
-59.59
-63.37
-64.68
-63.28
-58.70
-50.71
-39.97
-28.20
-17.76
-10.56
-7.01
-5.56
-3.34
2.42
12.95
27.14
41.90
53.53
59.36
58.79
53.48
46.25
39.86
35.86
34.26
34.03
33.95
33.30
31.97
30.28
28.43
26.40
23.92
20.84
17.28
13.74
10.87
9.12
8.48
8.39
7.94
6.24
2.77
-2.29
-8.10
-13.46
-17.30
-19.11
-19.24
-18.78
-19.12
-21.26
-25.32
-30.19
-33.89
-34.33
-30.23
-21.82
-11.01
-0.88
5.31
5.17
-1.97
-14.81
-30.34
-44.58
-53.79
-55.46
-48.99
-35.70
-18.15
0.79
18.68
33.84
45.13
51.71
52.87
48.25
38.06
23.27
5.53
-13.13
-30.58
-44.64
-53.21
-54.61
-48.30
-35.64
-20.05
-6.03
2.44
3.60
-1.41
-9.28
-16.16
-19.46
-18.60
-14.72
-9.46
-4.02
1.29
6.53
11.42
15.00
15.96
13.43
7.62
-0.09
-7.68
-13.19
-15.47
-14.45
-11.13
-7.21
-4.48
-4.33
-7.28
-12.86
-19.75
-26.24
-30.82
-32.71
-32.08
-29.94
-27.74
-26.73
-27.54
-29.79
-32.25
-33.30
-31.51
-26.23
-17.79
-7.30
3.81
14.17
22.70
28.67
31.63
31.45
28.42
23.39
17.68
12.89
10.30
10.42
12.79
16.23
19.40
21.35
21.73
20.84
19.35
17.90
16.77
15.92
15.05
13.81
12.01
9.45
6.10
2.12
-2.14
-6.27
-9.81
-12.27
-13.20
-12.28
-9.83
-6.35
-2.26
2.18
6.74
11.17
15.32
19.10
22.52
24.72
25.03
23.54
21.26
19.40
18.91
20.28
23.35
27.48
30.39
29.97
25.54
18.00
8.81
-0.94
-10.60
-20.21
-29.95
-41.65
-56.80
-75.05
-94.56
-113.48
-130.75
-145.55
-156.84
-152.61
-126.25
-82.19
-33.02
9.51
39.45
55.40
61.13
59.84
54.25
44.85
31.39
15.58
1.11
-8.61
-12.55
-11.93
-9.08
-5.16
-0.91
3.77
10.64
21.30
35.66
51.51
64.41
69.58
65.52
57.40
47.25
35.82
22.41
8.00
-6.01
-18.11
-27.17
-32.45
-34.40
-34.61
-33.98
-32.75
-31.17
-30.15
-30.83
-33.91
-39.00
-44.93
-50.39
-53.24
-51.37
-43.50
-30.10
-13.26
4.25
19.90
32.17
40.32
44.81
46.51
46.25
44.35
40.87
36.01
30.25
24.16
17.86
11.23
3.92
-4.50
-14.21
-24.85
-35.46
-44.63
-50.98
-53.78
-53.09
-49.80
-45.33
-41.06
-37.96
-36.36
-36.05
-36.53
-37.21
-37.55
-37.06
-35.35
-32.21
-27.79
-22.60
-17.43
-13.09
-10.13
-8.65
-8.39
-8.80
-9.38
-9.82
-10.12
-10.53
-11.40
-13.04
-15.65
-19.21
-23.49
-28.04
-32.20
-35.12
-35.89
-33.80
-28.46
-19.94
-8.62
5.01
20.48
37.31
54.84
72.00
87.42
99.69
107.91
111.96
112.53
110.80
107.95
104.76
101.55
98.29
94.82
91.07
87.01
82.62
77.85
72.65
67.09
61.51
56.39
52.20
49.08
46.65
44.00
40.12
34.36
27.00
19.33
13.32
10.85
13.02
19.68
29.57
40.74
51.20
59.40
64.34
65.59
63.18
57.55
49.46
39.81
29.54
19.37
9.72
0.83
-7.13
-13.98
-19.57
-23.81
-26.82
-28.84
-30.23
-31.32
-32.50
-34.14
-36.54
-39.83
-43.76
-47.82
-51.23
-53.36
-53.92
-53.07
-51.42
-49.81
-49.06
-49.68
-51.71
-54.53
-57.01
-57.77
-55.66
-50.12
-41.48
-30.71
-19.09
-7.80
2.37
10.99
17.92
23.11
26.60
28.48
28.96
28.38
27.23
26.03
25.03
24.18
23.10
21.33
18.44
14.30
9.18
3.81
-0.92
-4.32
-6.15
-6.76
-6.72
-6.87
-7.96
-10.42
-14.14
-18.68
-23.54
-28.39
-33.06
-36.83
-39.08
-39.27
-36.82
-31.10
-21.77
-9.24
5.23
19.70
33.03
43.70
50.31
52.35
51.06
49.30
50.40
56.84
69.28
87.69
108.86
127.37
137.65
136.58
124.55
104.97
83.15
64.65
55.83
58.74
70.69
85.53
96.93
100.65
95.66
84.01
56.22
14.05
-31.61
-68.45
-91.83
-103.95
-108.90
-109.80
-108.61
-107.03
-103.01
-98.43
-96.04
-97.94
-103.99
-112.13
-119.72
-124.75
-126.30
-122.64
-114.32
-102.73
-89.85
-77.07
-64.98
-53.97
-44.47
-37.08
-31.21
-26.84
-24.04
-22.99
-23.30
-24.22
-25.06
-25.53
-25.72
-25.47
-25.13
-25.23
-26.37
-28.77
-32.18
-36.04
-39.69
-42.50
-43.71
-42.88
-39.76
-34.41
-27.09
-18.18
-8.25
1.96
11.61
19.96
26.45
30.97
33.82
35.51
36.60
37.42
38.00
38.11
37.46
35.87
33.44
30.46
27.36
24.50
22.15
20.42
19.27
18.57
18.12
17.73
17.22
16.44
15.23
13.41
10.81
7.31
2.87
-2.44
-8.39
-14.59
-20.54
-25.62
-29.24
-30.91
-30.37
-27.66
-23.04
-17.02
-10.21
-3.24
3.22
8.63
12.55
14.78
15.37
14.65
13.08
11.23
9.59
8.48
8.03
8.10
8.36
8.40
7.83
6.46
4.34
1.79
-0.65
-2.32
-2.67
-1.37
1.57
5.66
10.14
14.15
17.08
18.83
19.96
21.40
24.08
28.50
34.49
41.40
48.48
55.33
62.07
69.22
77.27
86.42
96.41
106.71
116.82
126.41
135.35
143.53
150.67
156.37
160.25
162.18
162.37
161.35
159.78
158.21
156.94
155.81
154.13
150.64
143.59
131.13
111.67
84.22
48.73
6.21
-41.10
-89.84
-135.79
-174.54
-202.47
-217.70
-220.66
-213.87
-201.03
-185.74
-170.49
-156.33
-143.16
-130.50
-118.01
-105.70
-93.83
-82.66
-72.36
-63.05
-54.91
-48.08
-42.42
-37.36
-31.84
-24.72
-15.33
-3.93
8.17
18.93
26.25
28.58
25.42
17.51
6.67
-4.58
-13.69
-18.81
-19.35
-16.20
-11.35
-7.00
-4.73
-4.93
-6.88
-9.35
-11.30
-12.21
-12.12
-11.31
-9.96
-8.09
-5.67
-2.81
0.23
3.06
5.37
7.01
8.07
8.88
9.98
12.02
15.56
20.85
27.56
34.73
40.96
44.82
45.34
42.37
36.60
29.26
21.66
14.74
8.86
3.91
-0.47
-4.57
-8.44
-11.81
-14.24
-15.30
-14.73
-12.54
-9.00
-4.60
0.10
4.59
8.63
12.49
17.04
23.64
33.69
48.10
66.74
88.21
110.07
129.42
143.68
151.15
151.35
144.84
132.93
117.26
99.44
80.87
62.62
45.33
29.17
13.91
-0.89
-15.60
-30.30
-44.72
-58.30
-70.46
-80.77
-89.07
-95.44
-100.01
-102.92
-104.27
-104.11
-102.44
-99.22
-94.36
-87.78
-79.53
-69.93
-59.67
-49.67
-40.89
-34.02
-29.36
-26.77
-25.92
-26.46
-28.22
-31.07
-34.79
-38.80
-42.26
-44.28
-44.36
-42.66
-40.09
-37.84
-36.88
-37.56
-39.40
-41.43
-42.68
-42.57
-41.08
-38.62
-35.71
-32.80
-30.21
-28.23
-27.12
-27.00
-27.59
-28.12
-27.60
-25.41
-21.94
-18.73
-17.87
-20.93
-27.97
-37.34
-46.41
-52.84
-55.74
-55.88
-55.06
-55.06
-56.70
-59.66
-62.90
-65.34
-66.26
-65.47
-63.14
-59.71
-55.88
-52.55
-50.60
-50.51
-52.04
-54.25
-55.84
-55.76
-53.60
-49.54
-44.03
-37.40
-29.70
-20.92
-11.34
-1.73
6.86
13.55
18.12
21.00
23.11
25.29
27.86
30.59
32.86
34.17
34.42
34.01
33.60
33.74
34.55
35.70
36.57
36.63
35.74
34.16
32.45
31.11
30.33
29.98
29.63
28.68
26.57
22.83
17.37
10.64
3.69
-1.97
-4.87
-4.15
0.05
6.45
13.05
17.74
18.87
15.72
8.48
-1.91
-14.19
-27.15
-39.86
-51.53
-61.08
-66.80
-66.33
-57.40
-39.13
-13.10
16.40
43.52
62.73
70.80
67.55
55.35
37.62
17.54
-2.62
-21.10
-36.12
-45.61
-47.77
-42.10
-30.03
-14.78
-0.38
9.79
14.07
12.83
8.04
2.32
-1.94
-3.15
-0.69
5.16
13.44
22.78
31.63
38.53
42.46
43.05
40.77
36.67
32.01
27.86
24.71
22.46
20.56
18.43
15.78
12.75
9.92
8.02
7.64
9.08
12.15
16.28
20.67
24.58
27.50
29.33
30.37
31.19
32.32
33.99
35.97
37.68
38.41
37.68
35.52
32.52
29.53
27.32
26.23
26.13
26.59
27.16
27.63
27.92
27.96
27.49
26.05
23.20
18.80
13.12
6.87
0.95
-3.71
-6.26
-6.08
-2.88
3.11
11.08
19.73
27.66
33.80
37.74
39.71
40.36
40.24
39.54
38.04
35.40
31.50
26.80
22.26
19.15
18.53
20.82
25.52
31.24
36.02
37.98
35.90
29.52
19.53
7.04
-6.94
-21.93
-37.92
-55.05
-73.08
-91.11
-107.62
-120.69
-128.46
-129.40
-122.56
-107.78
-85.97
-59.30
-31.13
-5.53
13.63
23.74
24.22
16.62
3.96
-10.22
-22.87
-32.05
-36.98
-37.75
-34.98
-29.54
-22.40
-14.64
-7.28
-0.99
4.08
8.40
12.74
17.62
22.86
27.45
30.06
29.83
26.97
22.82
19.21
17.56
18.20
20.32
22.62
24.04
24.23
23.55
22.58
21.71
20.88
19.79
18.12
15.86
13.19
10.28
7.15
3.60
-0.53
-5.15
-9.77
-13.57
-15.64
-15.35
-12.56
-7.74
-1.73
4.45
9.82
13.61
15.26
14.53
11.49
6.51
0.08
-7.38
-15.65
-24.57
-33.73
-42.21
-48.64
-51.62
-50.33
-44.98
-36.75
-27.32
-18.20
-10.21
-3.52
2.12
6.99
11.11
14.32
16.31
16.88
15.88
13.39
9.68
5.31
1.09
-2.09
-3.53
-2.86
-0.19
4.01
9.08
14.37
19.36
23.65
27.09
29.75
31.93
34.08
36.73
40.28
44.86
50.26
56.02
61.56
66.36
70.11
72.69
74.21
74.83
74.70
73.83
72.18
69.67
66.35
62.38
58.06
53.65
49.24
44.70
39.76
34.13
27.78
21.02
14.43
8.65
3.99
0.30
-3.05
-6.80
-11.40
-16.68
-21.85
-25.90
-28.12
-28.44
-27.50
-26.26
-25.58
-25.88
-27.05
-28.64
-30.00
-30.31
-28.67
-24.18
-16.33
-5.48
6.78
17.78
24.55
24.97
18.78
7.86
-4.29
-13.77
-17.80
-15.68
-8.87
-0.14
7.59
12.37
13.58
11.83
8.57
5.58
4.61
7.38
15.35
29.34
48.92
72.11
95.70
116.21
131.06
139.04
140.76
138.40
135.04
133.64
136.20
143.59
155.70
171.78
190.01
208.48
225.87
241.59
255.13
265.03
268.81
263.66
247.55
219.08
178.81
129.68
76.13
22.43
-29.00
-77.59
-123.54
-166.65
-207.66
-247.08
-284.88
-320.53
-353.69
-385.07
-415.76
-446.32
-466.41
-466.06
-442.27
-401.75
-355.48
-311.80
-275.02
-246.41
-225.92
-212.55
-206.86
-208.65
-214.99
-221.18
-219.50
-204.45
-174.95
-134.82
-90.52
-50.53
-21.34
-4.95
1.29
2.86
5.12
12.53
23.33
37.55
54.36
72.79
92.05
111.61
131.28
150.70
169.62
188.49
209.52
234.81
265.84
302.10
340.00
372.85
392.17
390.70
365.41
319.48
260.22
196.49
135.56
81.45
35.22
-3.56
-34.93
-58.02
-71.31
-74.55
-69.51
-59.72
-49.24
-41.21
-37.17
-36.99
-39.56
-43.54
-48.08
-52.84
-57.70
-62.38
-66.22
-68.31
-67.84
-64.49
-58.65
-51.38
-44.06
-37.85
-33.36
-30.45
-28.41
-26.30
-23.44
-19.66
-15.36
-11.24
-8.07
-6.31
-6.03
-6.96
-8.70
-10.91
-13.36
-15.93
-18.46
-20.72
-22.42
-23.40
-23.76
-23.85
-24.18
-25.13
-26.77
-28.80
-30.66
-31.70
-31.40
-29.43
-25.69
-20.26
-13.35
-5.34
3.27
11.89
19.90
26.74
31.94
35.12
36.06
34.62
30.97
25.54
19.07
12.51
6.83
2.86
1.22
2.21
5.79
11.63
19.05
27.14
34.93
41.61
46.74
50.31
52.70
54.49
56.33
58.82
62.48
67.72
74.73
83.28
92.54
101.17
107.44
109.86
107.55
100.67
90.28
77.97
65.18
52.84
41.21
30.15
19.56
9.63
0.93
-5.92
-10.49
-12.85
-13.61
-13.80
-14.60
-17.06
-21.82
-28.98
-38.17
-48.70
-59.98
-71.76
-84.13
-97.30
-111.17
-125.10
-137.90
-148.29
-155.25
-158.30
-157.35
-152.45
-143.71
-131.46
-116.69
-101.19
-87.11
-76.00
-67.88
-60.99
-52.43
-39.73
-22.17
-1.29
19.83
38.02
51.33
59.54
63.72
65.16
64.66
62.40
58.55
53.83
49.77
48.10
49.96
55.08
61.77
67.55
70.27
68.99
64.30
57.84
51.52
46.64
43.52
41.69
40.27
38.57
36.31
33.62
30.75
27.89
24.99
21.77
17.91
13.23
7.81
2.05
-3.47
-8.10
-11.33
-12.92
-12.85
-11.31
-8.68
-5.45
-2.22
0.41
1.86
1.74
-0.11
-3.49
-7.85
-12.25
-15.51
-16.40
-14.05
-8.21
0.60
11.17
22.00
31.69
39.37
44.73
47.90
49.17
48.73
46.53
42.42
36.32
28.38
19.00
8.74
-1.94
-12.80
-23.84
-35.16
-46.70
-58.19
-69.19
-79.25
-88.14
-95.82
-102.35
-107.75
-111.88
-114.57
-115.76
-115.60
-114.49
-112.83
-110.84
-108.42
-105.16
-100.68
-94.82
-87.87
-80.52
-73.63
-67.90
-63.62
-60.49
-57.82
-54.79
-50.80
-45.73
-39.91
-33.90
-28.17
-22.78
-17.36
-11.16
-3.50
5.96
16.98
28.84
40.49
50.68
58.19
61.97
61.59
57.65
52.02
47.56
47.20
52.73
64.04
78.96
94.12
106.27
113.35
114.90
111.78
105.39
97.07
87.90
78.75
70.35
63.33
57.92
53.86
50.37
46.37
40.99
33.99
25.99
18.35
12.71
10.34
11.63
15.87
21.51
26.69
29.88
30.17
27.50
22.37
15.70
8.61
2.20
-2.56
-5.05
-5.20
-3.47
-0.80
1.69
3.03
2.63
0.36
-3.42
-8.11
-12.96
-17.36
-20.91
-23.65
-25.98
-28.56
-32.13
-37.18
-43.82
-51.68
-60.04
-68.05
-74.97
-80.39
-84.25
-86.78
-88.25
-88.86
-88.66
-87.61
-85.72
-83.11
-80.05
-76.87
-73.89
-71.42
-69.68
-68.84
-68.91
-69.66
-70.56
-70.86
-69.74
-66.52
-60.91
-53.08
-43.59
-33.29
-23.11
-13.76
-5.66
1.21
7.12
12.42
17.24
21.37
24.33
25.59
24.92
22.47
18.82
14.64
10.45
6.52
2.81
-0.80
-4.48
-8.34
-12.45
-16.93
-21.92
-27.56
-33.86
-40.72
-47.87
-55.01
-61.86
-68.17
-73.68
-77.97
-80.41
-80.16
-76.48
-68.86
-57.32
-42.41
-25.14
-6.71
11.61
28.61
43.11
54.06
60.76
63.09
61.76
58.37
54.98
53.57
55.42
60.87
69.27
79.35
89.60
98.64
105.41
109.27
110.02
107.86
103.30
96.90
89.04
79.82
69.12
56.93
43.55
29.70
16.35
4.38
-5.69
-13.83
-20.37
-25.77
-30.45
-34.72
-38.71
-42.44
-45.79
-48.51
-50.31
-50.99
-50.58
-49.36
-47.83
-46.50
-45.71
-45.52
-45.71
-45.84
-45.34
-43.58
-39.93
-33.83
-25.03
-13.76
-0.96
11.96
23.44
32.28
38.00
40.86
41.59
40.91
39.26
36.67
33.02
28.30
22.83
17.33
12.74
9.98
9.66
11.90
16.13
21.22
25.70
28.24
28.03
25.18
20.52
15.29
10.67
7.32
5.27
4.09
3.15
1.93
0.18
-2.04
-4.39
-6.35
-7.25
-6.48
-3.60
1.44
8.22
15.88
23.29
29.35
33.27
34.75
33.97
31.47
27.99
24.33
21.07
18.62
17.08
16.32
16.04
15.95
15.85
15.67
15.45
15.22
14.93
14.34
13.06
10.66
6.87
1.72
-4.34
-10.64
-16.42
-21.19
-24.81
-27.49
-29.61
-31.56
-33.71
-36.35
-39.65
-43.56
-47.65
-51.06
-52.61
-51.26
-46.54
-38.96
-29.85
-20.99
-13.98
-9.76
-8.48
-9.55
-11.92
-14.34
-15.56
-14.59
-10.92
-4.79
2.82
10.38
16.27
19.31
19.22
16.71
13.19
10.22
8.96
9.79
12.24
15.30
17.86
19.04
18.44
16.10
12.37
7.81
3.05
-1.23
-4.45
-6.20
-6.51
-5.80
-4.88
-4.64
-5.76
-8.53
-12.77
-17.96
-23.38
-28.42
-32.63
-35.71
-37.44
-37.55
-35.62
-31.17
-23.85
-13.60
-0.85
13.54
28.42
42.55
54.75
63.94
69.20
69.80
65.44
56.46
44.02
30.01
16.70
6.20
-0.02
-1.44
1.57
8.09
17.01
27.27
37.97
48.25
57.19
63.89
67.61
67.95
65.07
59.57
52.37
44.47
36.77
29.95
24.44
20.31
17.29
14.74
11.77
7.54
1.54
-6.21
-15.22
-24.66
-33.79
-42.15
-49.68
-56.57
-63.07
-69.18
-74.69
-79.15
-82.07
-83.06
-81.95
-78.80
-73.86
-67.45
-60.00
-51.91
-43.65
-35.67
-28.36
-22.02
-16.69
-12.16
-8.08
-4.05
0.15
4.51
8.72
12.37
15.09
16.59
16.73
15.53
13.16
9.99
6.66
3.91
2.41
2.46
3.79
5.58
6.77
6.38
3.86
-0.83
-7.37
-15.25
-23.94
-32.94
-41.66
-49.43
-55.48
-59.11
-59.81
-57.32
-51.61
-42.88
-31.39
-17.48
-1.60
15.54
32.85
48.74
61.30
68.70
69.76
64.39
53.77
40.01
25.60
12.76
3.10
-2.37
-3.07
1.26
10.39
23.32
38.13
52.21
63.01
68.90
69.82
67.22
63.49
61.02
61.30
64.53
69.74
75.29
79.45
80.87
78.73
72.74
63.06
50.23
35.18
19.11
3.37
-10.78
-22.46
-31.34
-37.58
-41.72
-44.45
-46.35
-47.82
-49.08
-50.26
-51.38
-52.40
-53.23
-53.62
-53.13
-51.08
-46.63
-39.20
-28.73
-16.04
-2.71
9.33
18.44
23.79
25.48
24.29
21.20
16.98
12.16
7.16
2.45
-1.45
-4.19
-5.82
-6.84
-7.98
-9.81
-12.52
-15.79
-19.02
-21.65
-23.44
-24.57
-25.55
-27.03
-29.59
-33.53
-38.85
-45.16
-51.82
-57.99
-62.82
-65.62
-65.99
-63.86
-59.49
-53.33
-46.01
-38.18
-30.49
-23.44
-17.30
-12.04
-7.26
-2.45
2.82
8.61
14.61
20.19
24.85
28.50
31.67
35.34
40.66
48.40
58.72
70.94
83.71
95.32
104.16
109.12
109.91
107.10
101.91
95.76
89.86
84.76
80.27
75.54
69.49
61.14
50.11
36.73
22.01
7.38
-5.77
-16.50
-24.53
-30.16
-34.00
-36.61
-38.28
-39.08
-38.97
-38.09
-36.83
-35.82
-35.69
-36.83
-39.18
-42.22
-45.18
-47.32
-48.30
-48.21
-47.45
-46.45
-45.35
-43.87
-41.55
-37.94
-32.97
-26.92
-20.37
-13.86
-7.69
-2.00
3.18
7.73
11.38
13.77
14.64
13.98
12.04
9.27
6.10
2.78
-0.63
-4.28
-8.26
-12.54
-16.93
-21.22
-25.37
-29.62
-34.47
-40.45
-47.86
-56.53
-65.81
-74.77
-82.50
-88.47
-92.66
-95.44
-97.27
-98.39
-98.61
-97.40
-94.17
-88.66
-81.29
-73.16
-65.95
-61.53
-61.36
-65.94
-74.33
-83.81
-90.14
-88.44
-74.68
-47.34
-8.46
36.57
80.50
116.46
140.04
150.21
148.91
139.69
126.15
111.05
96.08
82.27
70.30
60.56
52.86
46.15
38.61
28.23
13.59
-5.40
-27.26
-49.18
-67.74
-79.98
-84.24
-80.71
-71.36
-59.23
-47.51
-38.39
-32.47
-28.61
-24.63
-18.36
-8.66
3.98
17.67
30.06
39.50
45.68
49.60
52.78
56.24
59.85
62.44
62.66
60.00
55.41
51.13
49.65
52.55
59.59
68.84
77.46
82.93
83.97
80.89
75.26
69.19
64.75
63.37
65.50
70.20
74.73
74.50
63.88
38.20
-3.90
-58.67
-117.43
-169.02
-203.36
-214.78
-203.42
-174.27
-134.70
-91.95
-51.49
-16.85
9.79
27.15
34.85
33.82
26.51
16.56
7.79
3.19
4.07
9.90
18.76
28.03
35.31
39.08
38.96
35.65
30.41
24.43
18.47
12.66
6.66
0.02
-7.54
-15.98
-24.95
-33.75
-41.37
-46.54
-47.86
-44.15
-34.95
-20.85
-3.61
14.27
30.37
43.11
52.25
58.65
63.55
67.65
70.53
70.87
67.16
58.76
46.49
32.49
19.50
9.65
3.62
0.46
-1.80
-5.22
-11.01
-19.16
-28.76
-38.56
-47.65
-55.75
-63.09
-70.06
-76.94
-83.67
-90.03
-95.76
-100.54
-103.68
-103.83
-98.91
-86.56
-65.22
-34.92
2.43
43.73
85.66
125.57
161.61
192.24
215.72
230.16
234.27
228.40
215.06
198.35
182.64
170.94
164.05
160.75
158.76
155.78
150.13
140.77
127.12
109.08
87.25
63.12
38.90
17.04
-0.39
-12.34
-18.64
-19.68
-15.93
-7.77
4.40
19.92
37.57
55.67
72.32
85.72
94.64
98.67
98.29
94.66
88.88
81.30
71.22
57.42
39.23
17.77
-3.79
-21.24
-30.99
-31.76
-25.05
-14.38
-3.77
3.70
6.67
5.17
0.13
-7.30
-16.03
-25.05
-33.38
-40.15
-44.67
-46.51
-45.64
-42.47
-37.73
-32.51
-27.98
-25.20
-24.83
-26.93
-30.84
-35.29
-38.63
-39.29
-36.37
-30.08
-21.73
-13.32
-6.81
-3.45
-3.49
-6.42
-11.40
-17.75
-25.05
-33.03
-41.27
-49.05
-55.38
-59.27
-60.01
-57.26
-51.11
-42.04
-30.86
-18.74
-7.02
2.94
10.20
14.54
16.55
17.41
18.33
20.04
22.43
24.56
25.06
22.73
17.04
8.31
-2.48
-14.14
-25.69
-36.62
-46.73
-55.93
-64.00
-70.50
-75.02
-77.41
-77.96
-77.37
-76.51
-76.02
-76.16
-76.69
-77.05
-76.58
-74.75
-71.25
-66.06
-59.47
-51.93
-44.03
-36.37
-29.35
-23.05
-17.19
-11.23
-4.61
3.00
11.53
20.42
28.68
35.16
38.92
39.64
37.75
34.47
31.33
29.67
29.88
31.20
31.85
29.79
23.54
12.91
-0.94
-15.88
-29.45
-39.46
-44.33
-43.24
-36.32
-24.70
-10.60
2.94
12.70
16.14
12.08
1.03
-15.03
-33.33
-50.87
-65.02
-73.83
-76.28
-72.56
-64.06
-53.17
-42.62
-34.65
-30.25
-28.99
-29.38
-29.65
-28.52
-25.61
-21.40
-16.73
-12.41
-8.71
-5.52
-2.45
0.77
4.16
7.44
10.31
12.61
14.36
15.75
16.96
18.21
19.92
22.81
27.69
35.05
44.52
54.61
63.09
67.75
67.31
61.91
52.96
42.45
32.22
23.46
16.69
12.02
9.40
8.65
9.30
10.50
11.08
9.93
6.35
0.34
-7.40
-15.70
-23.33
-29.39
-33.57
-36.13
-37.74
-39.10
-40.68
-42.51
-44.32
-45.77
-46.78
-47.76
-49.48
-52.69
-57.63
-63.73
-69.54
-73.24
-73.18
-68.53
-59.62
-48.00
-36.19
-27.04
-23.09
-25.56
-33.73
-44.72
-53.99
-56.58
-48.77
-29.25
0.29
35.67
71.48
102.54
125.13
137.51
139.83
133.46
120.34
102.44
81.61
59.65
38.41
19.74
5.16
-4.53
-9.51
-10.88
-10.20
-8.87
-7.79
-7.24
-7.18
-7.51
-8.32
-9.85
-12.25
-15.41
-18.93
-22.15
-24.40
-25.27
-24.74
-23.21
-21.38
-20.02
-19.65
-20.36
-21.78
-23.11
-23.38
-21.74
-17.61
-10.78
-1.43
9.94
22.56
35.49
47.74
58.34
66.60
72.20
75.19
75.93
74.91
72.62
69.51
65.97
62.34
58.84
55.41
51.60
46.59
39.47
29.59
16.89
2.05
-13.80
-29.48
-44.13
-57.44
-69.53
-80.73
-91.31
-101.34
-110.75
-119.47
-127.53
-135.07
-142.27
-149.13
-155.54
-161.37
-166.74
-172.18
-178.53
-186.49
-195.88
-205.10
-211.00
-209.70
-198.01
-174.91
-142.43
-105.36
-69.64
-40.28
-19.68
-6.84
1.82
11.08
25.25
47.11
77.40
114.73
155.60
194.59
225.09
240.85
238.16
217.74
185.23
149.67
120.35
103.30
99.30
104.07
110.79
113.31
108.64
97.61
83.66
70.80
61.78
57.43
56.96
59.00
62.28
66.00
69.68
72.87
74.96
75.33
73.65
70.19
65.82
61.76
59.01
57.87
57.72
57.22
54.92
50.01
42.77
34.61
27.56
23.49
23.44
27.32
34.03
41.94
49.48
55.64
60.19
63.69
67.16
71.55
77.14
83.27
88.37
90.45
87.83
79.80
66.78
50.14
31.77
13.39
-3.70
-18.81
-31.76
-42.76
-52.20
-60.56
-68.30
-75.81
-83.31
-90.81
-98.17
-105.10
-111.22
-116.25
-120.15
-123.17
-125.75
-128.36
-131.23
-134.31
-137.30
-139.88
-141.94
-143.60
-145.23
-147.10
-149.23
-151.16
-151.89
-150.21
-145.02
-135.82
-122.96
-107.66
-91.61
-76.50
-63.58
-53.34
-45.60
-39.60
-34.21
-28.21
-20.64
-11.08
0.02
11.38
21.31
28.45
32.47
34.28
35.49
37.52
40.72
44.10
45.93
44.61
39.46
30.96
20.39
9.26
-1.15
-9.99
-16.73
-21.01
-22.63
-21.64
-18.52
-14.11
-9.43
-5.34
-2.25
0.11
2.42
5.58
10.18
16.23
23.12
29.91
35.74
40.21
43.48
45.93
47.88
49.34
50.13
50.22
49.95
49.97
50.93
53.22
56.85
61.71
67.71
74.88
83.11
91.77
99.73
105.48
107.78
106.17
101.15
93.88
85.60
77.11
68.65
60.13
51.52
43.03
35.06
27.94
21.65
15.82
9.98
3.85
-2.43
-8.36
-13.33
-17.03
-19.67
-22.03
-25.19
-30.02
-36.91
-45.46
-54.64
-63.24
-70.35
-75.78
-80.16
-84.55
-89.87
-96.35
-103.28
-109.23
-112.60
-112.09
-107.16
-98.10
-86.12
-73.13
-61.45
-53.25
-49.80
-50.86
-54.41
-57.21
-55.90
-48.14
-33.46
-13.35
9.38
31.51
50.32
64.09
72.29
75.46
74.83
71.90
67.99
64.02
60.48
57.52
55.12
53.11
51.16
48.82
45.63
41.24
35.61
28.88
21.19
12.54
2.87
-7.66
-18.24
-27.38
-33.21
-34.18
-29.69
-20.36
-7.78
6.05
19.43
31.30
41.31
49.51
55.91
60.33
62.47
62.27
60.39
58.29
58.00
61.44
69.68
82.40
97.97
113.94
127.84
137.82
143.03
143.51
139.92
133.21
124.31
113.99
102.73
90.58
77.29
62.44
45.84
27.77
9.21
-8.39
-23.46
-34.86
-42.14
-45.62
-46.13
-44.60
-41.78
-38.16
-34.06
-29.86
-26.04
-23.08
-21.22
-20.33
-19.91
-19.27
-17.92
-15.85
-13.60
-12.10
-12.26
-14.54
-18.76
-24.16
-29.72
-34.60
-38.42
-41.30
-43.75
-46.37
-49.73
-54.20
-59.94
-66.63
-73.19
-77.67
-77.65
-71.16
-57.78
-39.38
-19.83
-3.78
5.12
5.54
-1.24
-12.02
-23.18
-31.76
-36.17
-36.01
-31.67
-24.05
-14.33
-3.98
5.46
12.72
17.12
18.71
18.16
16.41
14.37
12.65
11.47
10.62
9.62
7.83
4.81
0.51
-4.54
-9.30
-12.47
-12.82
-9.51
-2.27
8.64
22.30
37.25
51.53
63.03
70.05
71.91
69.44
64.95
61.71
63.02
71.25
87.24
110.12
137.56
166.19
192.19
211.85
222.22
221.71
210.51
190.57
165.02
137.17
109.44
82.77
56.75
30.45
3.36
-23.90
-49.68
-71.95
-89.25
-101.25
-108.85
-113.64
-117.29
-120.89
-124.89
-129.22
-133.63
-137.86
-141.73
-145.17
-148.14
-150.69
-152.93
-154.98
-156.82
-158.19
-158.59
-157.44
-154.35
-149.30
-142.83
-136.01
-130.21
-126.89
-127.07
-130.82
-136.87
-142.56
-144.26
-138.34
-122.45
-96.40
-62.45
-24.55
12.99
46.73
74.84
96.87
112.96
122.91
125.77
120.03
104.49
79.21
46.31
9.89
-24.70
-52.24
-69.13
-74.42
-69.86
-59.05
-45.98
-33.62
-23.34
-15.27
-9.11
-4.88
-3.07
-4.11
-7.83
-13.22
-18.83
-23.60
-27.40
-30.95
-35.19
-40.28
-45.10
-47.51
-45.20
-36.89
-22.96
-5.56
12.16
27.14
37.41
42.61
43.79
42.76
41.21
40.06
39.33
38.51
37.14
35.41
34.30
35.27
39.57
47.54
58.21
69.51
78.83
83.94
83.58
77.80
67.84
55.65
43.35
32.74
25.07
21.00
20.63
23.56
28.95
35.54
41.84
46.31
47.66
45.15
38.77
29.25
17.92
6.34
-4.12
-12.58
-18.82
-23.14
-26.07
-28.05
-29.17
-29.24
-27.94
-25.13
-21.00
-16.07
-11.00
-6.34
-2.30
1.24
4.68
8.45
12.80
17.70
22.82
27.63
31.53
33.99
34.62
33.28
30.02
25.19
19.35
13.14
7.12
1.53
-3.74
-9.06
-14.83
-21.24
-28.12
-34.98
-41.22
-46.41
-50.40
-53.41
-55.89
-58.37
-61.28
-64.76
-68.62
-72.26
-74.92
-75.88
-74.82
-72.01
-68.27
-64.74
-62.49
-62.24
-64.00
-66.91
-69.36
-69.29
-64.85
-54.97
-39.87
-21.05
-0.91
18.02
33.71
45.05
51.78
54.15
52.52
47.15
38.32
26.55
12.79
-1.71
-15.65
-28.17
-39.15
-49.15
-59.12
-69.86
-81.73
-94.63
-108.31
-122.64
-137.55
-152.63
-166.68
-177.63
-183.06
-181.03
-170.96
-153.98
-132.50
-109.40
-87.02
-66.61
-48.28
-31.46
-15.43
0.11
14.96
28.42
39.59
47.75
52.60
54.30
53.43
50.81
47.39
44.13
41.93
41.46
43.06
46.55
51.27
56.27
60.49
63.08
63.52
61.76
58.27
54.05
50.53
49.20
51.17
56.66
64.80
73.95
82.31
88.68
92.80
95.25
96.94
98.54
100.16
101.53
102.39
102.85
103.30
104.16
105.34
106.10
105.24
101.64
94.91
85.57
74.89
64.34
54.93
46.98
40.14
33.77
27.45
21.13
15.21
10.34
7.12
5.97
7.07
10.33
15.46
22.00
29.42
37.08
44.35
50.68
55.65
58.99
60.66
60.71
59.28
56.49
52.48
47.43
41.61
35.47
29.52
24.22
19.75
15.87
12.01
7.43
1.59
-5.69
-14.09
-22.99
-31.64
-39.32
-45.48
-49.74
-51.84
-51.65
-49.20
-44.69
-38.46
-30.95
-22.61
-13.83
-5.03
3.28
10.51
16.08
19.64
21.25
21.54
21.56
22.42
24.98
29.51
35.73
43.03
50.77
58.60
66.46
74.44
82.54
90.47
97.67
103.48
107.44
109.46
109.96
109.80
109.86
110.85
112.94
115.75
118.60
120.65
121.26
120.01
116.50
110.23
100.61
87.15
69.89
49.60
27.78
6.21
-13.56
-30.73
-45.38
-58.18
-70.04
-81.64
-93.24
-104.61
-115.17
-124.25
-131.27
-135.99
-138.57
-139.54
-139.58
-139.10
-137.85
-134.73
-127.85
-114.87
-93.62
-63.07
-24.19
19.53
62.35
97.59
119.52
125.28
115.82
95.49
70.46
46.56
27.64
14.91
7.33
2.69
-1.50
-7.46
-16.97
-31.12
-49.84
-71.48
-92.72
-109.38
-117.77
-116.21
-105.91
-90.83
-76.28
-67.09
-66.06
-73.23
-86.39
-102.12
-116.98
-128.27
-134.31
-134.29
-128.18
-116.66
-101.17
-83.77
-66.85
-52.50
-41.95
-35.20
-31.21
-28.52
-25.83
-22.43
-18.06
-12.64
-5.88
2.65
13.26
25.71
38.98
51.47
61.54
68.02
70.68
70.16
67.69
64.62
62.00
60.37
59.68
59.50
59.27
58.64
57.72
57.12
57.84
60.87
66.86
75.74
86.65
98.14
108.55
116.42
120.76
121.00
116.89
108.39
95.76
79.85
62.17
44.69
29.27
16.95
7.56
-0.11
-7.64
-16.17
-25.97
-36.54
-47.15
-57.37
-67.25
-76.98
-86.35
-94.47
-99.76
-100.67
-96.34
-87.20
-74.92
-61.93
-50.49
-41.89
-36.07
-31.85
-27.52
-21.63
-13.40
-2.91
9.21
22.08
34.88
46.79
57.03
64.77
69.37
70.61
68.89
65.11
60.36
55.51
50.89
46.29
41.18
35.05
27.64
18.95
9.20
-1.28
-12.13
-22.85
-32.72
-40.98
-47.07
-50.99
-53.40
-55.46
-58.31
-62.54
-67.86
-73.11
-76.77
-77.48
-74.63
-68.57
-60.50
-52.10
-44.93
-39.95
-37.16
-35.74
-34.38
-31.93
-27.89
-22.55
-16.80
-11.63
-7.83
-5.79
-5.69
-7.63
-11.69
-17.73
-25.10
-32.56
-38.55
-41.74
-41.52
-38.32
-33.33
-27.97
-23.35
-19.80
-17.04
-14.39
-11.32
-7.60
-3.37
1.07
5.47
9.74
13.91
18.02
22.07
26.04
29.86
33.56
37.11
40.43
43.26
45.17
45.67
44.35
41.09
36.14
30.16
24.09
18.88
15.30
13.80
14.44
17.04
21.26
26.70
32.88
39.31
45.61
51.69
57.83
64.51
72.12
80.45
88.60
95.16
98.75
98.70
95.37
90.07
84.36
79.30
74.91
70.18
63.61
54.00
41.00
25.27
8.13
-9.11
-25.62
-41.17
-55.91
-69.92
-82.97
-94.41
-103.48
-109.62
-112.64
-112.86
-110.92
-107.62
-103.78
-100.02
-96.71
-93.89
-91.24
-88.14
-83.74
-77.13
-67.58
-54.81
-39.42
-23.08
-8.34
2.05
6.11
3.49
-4.31
-14.50
-24.01
-30.60
-33.44
-32.97
-30.20
-26.06
-21.02
-15.24
-8.92
-2.53
3.23
7.75
10.84
12.82
14.34
16.05
18.26
20.79
23.11
24.59
24.89
24.07
22.59
21.03
19.84
19.10
18.53
17.74
16.47
14.82
13.23
12.31
12.44
13.58
15.24
16.70
17.38
17.08
16.04
14.79
13.93
13.98
15.36
18.36
23.02
29.03
35.62
41.75
46.56
49.86
52.37
55.43
60.34
67.56
76.35
84.92
91.18
93.54
91.48
85.60
77.27
68.03
59.08
50.94
43.46
36.03
27.92
18.54
7.66
-4.64
-18.11
-32.44
-47.38
-62.61
-77.67
-91.86
-104.43
-114.77
-122.61
-128.15
-131.83
-134.01
-134.72
-133.55
-129.87
-123.22
-113.66
-101.93
-89.27
-76.98
-65.89
-56.13
-47.16
-38.06
-28.06
-16.78
-4.33
8.79
21.89
34.14
44.64
52.48
56.97
57.84
55.50
50.91
45.30
39.75
34.84
30.54
26.49
22.31
17.83
13.22
8.73
4.62
0.93
-2.40
-5.46
-8.27
-10.72
-12.72
-14.19
-15.25
-16.15
-17.20
-18.60
-20.33
-22.16
-23.67
-24.46
-24.30
-23.26
-21.69
-20.02
-18.57
-17.34
-16.00
-14.06
-11.08
-6.87
-1.55
4.59
11.19
18.03
25.02
32.16
39.45
46.90
54.50
62.14
69.64
76.62
82.70
87.55
91.15
93.87
96.34
99.25
102.96
107.35
111.69
114.88
115.74
113.28
106.87
96.24
81.43
62.81
41.04
17.21
-7.27
-30.88
-52.40
-71.30
-87.89
-103.08
-117.89
-132.87
-147.79
-161.79
-173.73
-182.68
-188.27
-190.69
-190.48
-188.31
-184.68
-179.73
-173.31
-165.02
-154.60
-142.20
-128.60
-115.09
-103.22
-94.31
-89.00
-86.74
-85.69
-82.95
-75.34
-60.65
-38.88
-12.92
12.00
30.11
37.45
33.56
21.62
6.91
-5.64
-13.39
-16.45
-16.67
-15.90
-14.70
-12.27
-7.34
0.66
11.02
21.99
31.71
39.15
44.42
48.47
52.35
56.53
60.68
63.95
65.45
64.74
62.07
58.26
54.36
51.29
49.56
49.18
49.71
50.43
50.56
49.52
47.09
43.55
39.56
35.90
33.07
31.12
29.57
27.77
25.26
22.16
19.15
17.21
17.22
19.73
24.95
32.99
43.89
57.60
73.55
90.48
106.54
119.75
128.73
133.10
133.40
130.62
125.58
118.60
109.69
98.98
87.10
75.18
64.45
55.72
48.95
43.30
37.48
30.43
21.72
11.76
1.55
-7.79
-15.59
-21.84
-27.18
-32.49
-38.46
-45.20
-52.24
-58.61
-63.31
-65.65
-65.47
-63.28
-60.11
-57.30
-56.25
-58.05
-63.28
-71.80
-82.69
-94.44
-105.32
-113.84
-119.09
-120.77
-118.94
-113.65
-104.69
-91.75
-74.93
-55.20
-34.58
-15.58
-0.34
10.27
16.84
21.11
24.98
29.73
35.63
42.12
48.33
53.58
57.61
60.50
62.43
63.48
63.61
62.80
61.17
59.08
57.09
55.78
55.61
56.69
58.82
61.55
64.36
66.70
68.08
67.89
65.49
60.39
52.49
42.34
31.16
20.50
11.76
5.75
2.56
1.71
2.59
4.69
7.77
11.64
16.06
20.61
25.00
29.19
33.49
38.47
44.49
51.47
58.65
64.81
68.61
69.14
66.12
60.06
52.02
43.21
34.71
27.21
20.91
15.58
10.74
5.88
0.70
-4.81
-10.41
-15.82
-20.86
-25.62
-30.35
-35.40
-41.09
-47.55
-54.74
-62.44
-70.30
-77.90
-84.78
-90.50
-94.77
-97.56
-99.06
-99.66
-99.81
-99.81
-99.78
-99.65
-99.15
-97.94
-95.68
-92.15
-87.40
-81.77
-75.89
-70.59
-66.69
-64.76
-64.97
-67.04
-70.28
-73.82
-76.74
-78.30
-78.04
-75.80
-71.77
-66.40
-60.29
-53.96
-47.77
-41.73
-35.67
-29.26
-22.29
-14.77
-6.97
0.69
7.73
13.74
18.50
22.01
24.48
26.22
27.60
28.90
30.20
31.41
32.34
32.86
32.99
32.88
32.82
32.99
33.45
34.10
34.76
35.22
35.37
35.14
34.57
33.85
33.45
34.16
36.94
42.63
51.57
63.30
76.58
89.75
101.26
110.14
116.21
119.97
122.25
123.94
125.71
127.91
130.56
133.27
135.33
135.63
132.96
126.22
114.86
99.17
80.38
60.43
41.47
25.26
12.70
3.72
-2.55
-7.33
-11.75
-16.46
-21.61
-27.04
-32.54
-38.07
-43.77
-49.96
-56.83
-64.33
-72.13
-79.78
-86.94
-93.58
-99.97
-106.55
-113.59
-120.98
-128.24
-134.66
-139.53
-142.30
-142.50
-139.64
-133.26
-123.18
-110.01
-95.26
-81.03
-69.24
-60.76
-55.17
-51.08
-47.03
-42.26
-37.03
-32.16
-28.35
-25.57
-23.05
-19.70
-14.77
-8.21
-0.66
6.94
13.73
19.15
23.07
25.60
27.01
27.56
27.39
26.52
24.98
22.88
20.46
18.08
16.10
14.75
13.97
13.44
12.66
11.11
8.47
4.77
0.40
-4.05
-8.04
-11.29
-13.78
-15.57
-16.57
-16.28
-13.91
-8.57
0.22
12.28
26.65
41.90
56.52
69.26
79.33
86.46
90.93
93.73
96.55
101.67
111.41
127.22
148.90
174.19
199.09
218.98
229.94
230.00
219.50
200.66
176.67
150.58
124.65
100.26
78.03
58.18
40.64
25.06
10.79
-2.96
-16.89
-31.23
-45.62
-59.20
-71.00
-80.43
-87.51
-92.93
-97.81
-103.25
-109.86
-117.60
-125.73
-133.20
-139.02
-142.73
-144.44
-144.62
-143.76
-141.92
-138.79
-133.85
-126.75
-117.62
-107.18
-96.60
-87.12
-79.74
-74.88
-72.37
-71.52
-71.34
-70.90
-69.45
-66.53
-61.89
-55.48
-47.43
-38.13
-28.28
-18.69
-10.13
-2.99
2.70
7.18
10.70
13.39
15.19
16.09
16.20
15.77
15.06
14.25
13.34
12.29
11.13
10.05
9.27
8.88
8.73
8.42
7.48
5.56
2.59
-1.31
-5.82
-10.52
-14.91
-18.46
-20.56
-20.58
-17.92
-12.15
-3.12
9.00
23.66
40.06
57.18
73.97
89.41
102.63
113.05
120.60
125.69
129.24
132.35
135.93
140.49
146.04
152.30
158.85
165.28
171.04
175.45
177.73
177.12
173.04
165.18
153.46
137.93
118.86
96.94
73.46
50.21
29.06
11.29
-2.84
-14.08
-23.76
-33.12
-42.89
-53.10
-63.45
-73.57
-83.32
-92.82
-102.32
-112.04
-121.97
-131.83
-141.05
-148.86
-154.34
-156.72
-155.56
-151.00
-143.88
-135.78
-128.74
-124.88
-125.87
-132.43
-144.03
-158.97
-174.66
-188.22
-196.96
-198.87
-192.82
-178.68
-157.19
-129.87
-98.76
-66.12
-34.12
-4.54
21.48
43.40
61.26
75.44
86.47
94.82
100.80
104.57
106.21
105.89
103.94
100.92
97.47
94.13
91.16
88.40
85.30
81.11
75.12
66.90
56.50
44.34
31.04
17.18
3.11
-10.99
-24.85
-37.91
-49.21
-57.63
-62.22
-62.52
-58.68
-51.29
-41.15
-29.02
-15.61
-1.56
12.46
25.79
37.78
47.95
55.98
61.63
64.61
64.44
60.52
52.49
40.94
27.86
16.63
11.12
14.17
26.31
45.27
66.94
87.19
103.62
116.24
126.77
137.11
148.00
158.70
167.62
173.51
176.10
176.07
174.32
171.25
166.48
159.16
148.61
134.84
118.64
101.43
84.71
69.69
56.99
46.57
37.82
29.70
20.89
10.02
-4.07
-22.10
-44.23
-69.86
-97.67
-125.77
-151.88
-173.74
-189.54
-198.39
-200.58
-197.66
-192.06
-186.30
-182.21
-180.41
-180.43
-181.20
-181.67
-181.29
-179.94
-177.64
-174.24
-169.37
-162.56
-153.65
-142.98
-131.35
-119.61
-108.62
-99.28
-91.97
-86.47
-82.29
-78.73
-74.98
-70.21
-63.51
-54.38
-43.15
-30.69
-18.18
-6.86
2.44
9.81
16.12
23.05
31.79
41.88
52.42
62.56
71.53
78.95
84.90
89.65
94.63
100.49
105.04
106.37
103.30
94.32
78.51
56.50
31.04
9.09
-3.16
-6.18
-1.72
7.93
18.68
26.95
31.41
33.37
39.59
55.04
75.24
96.99
120.14
143.99
167.62
189.73
208.29
225.97
243.98
254.77
256.50
253.64
249.72
246.28
242.77
205.88
121.88
42.65
-13.46
-56.35
-88.10
-111.12
-128.21
-141.93
-153.89
-159.55
-155.61
-149.03
-143.25
-137.03
-130.19
-123.23
-116.98
-112.05
-104.71
-92.24
-79.54
-68.51
-57.32
-45.34
-33.00
-21.39
-11.46
-1.23
10.87
21.62
29.53
35.31
39.05
40.65
40.24
38.73
38.43
40.82
44.22
46.99
48.52
47.98
44.82
39.01
31.65
24.33
17.83
11.39
4.11
-3.66
-11.43
-18.72
-25.00
-28.42
-27.67
-22.79
-15.08
-6.65
1.97
10.49
18.58
25.94
34.56
45.73
58.85
71.70
81.30
87.78
92.21
95.77
99.58
107.25
120.92
139.72
160.23
177.69
190.99
199.84
203.79
184.62
134.60
62.01
-13.61
-68.25
-104.15
-126.48
-139.89
-148.67
-155.27
-158.50
-157.15
-151.47
-143.11
-134.81
-126.07
-116.43
-106.38
-96.86
-86.70
-74.98
-62.12
-49.85
-40.79
-34.80
-31.26
-29.53
-28.78
-26.63
-21.04
-11.34
1.80
16.68
33.10
51.07
70.39
90.60
111.53
132.56
152.43
169.52
182.36
190.77
195.22
196.34
194.77
191.11
185.53
177.57
166.40
151.13
131.66
108.63
83.36
57.36
31.86
7.37
-16.37
-39.98
-63.76
-87.19
-108.76
-126.46
-138.49
-144.00
-143.59
-139.19
-133.66
-130.08
-131.00
-137.73
-149.73
-164.49
-177.98
-185.65
-183.91
-171.36
-149.41
-121.84
-93.68
-69.64
-52.97
-44.84
-44.53
-50.01
-58.72
-68.28
-76.87
-83.41
-87.56
-89.59
-90.23
-90.55
-91.79
-95.15
-101.51
-111.19
-123.87
-138.83
-155.34
-172.96
-191.56
-210.97
-230.50
-248.67
-263.42
-272.68
-275.13
-270.51
-259.42
-242.94
-221.96
-197.03
-168.32
-135.90
-99.82
-60.10
-16.84
29.61
78.04
126.06
170.16
206.45
231.93
245.56
248.72
244.71
237.49
230.47
225.65
223.60
223.87
225.64
228.06
230.40
231.93
231.92
229.78
225.23
218.50
210.28
201.49
192.86
184.61
176.51
168.10
159.08
149.66
140.56
132.86
127.58
125.32
126.01
128.74
131.80
132.89
129.67
120.42
104.72
83.70
59.88
36.29
15.44
-1.41
-14.47
-24.96
-34.35
-43.79
-53.90
-65.01
-77.31
-90.84
-105.28
-119.57
-131.92
-140.14
-142.35
-137.71
-126.86
-111.93
-95.92
-81.78
-71.58
-66.00
-64.45
-65.53
-67.75
-70.13
-72.34
-74.53
-77.03
-80.02
-83.54
-87.57
-92.16
-97.34
-103.00
-108.72
-113.84
-117.59
-119.36
-118.85
-116.12
-111.59
-105.94
-100.05
-94.77
-90.75
-88.15
-86.60
-85.30
-83.44
-80.51
-76.62
-72.47
-69.11
-67.42
-67.82
-69.94
-72.61
-74.02
-72.07
-65.03
-52.17
-34.38
-14.20
4.70
18.65
25.27
24.43
18.40
11.05
6.52
7.86
16.31
31.27
50.93
72.91
94.80
114.41
129.93
140.14
144.73
144.52
141.23
137.06
133.75
132.04
131.42
130.50
127.76
122.25
113.94
103.62
92.52
81.77
72.08
63.64
56.17
49.13
41.92
34.11
25.57
16.78
8.71
2.79
0.46
2.71
9.67
20.49
33.43
46.23
56.50
62.12
61.58
54.35
41.07
23.39
3.55
-16.41
-35.14
-52.24
-68.03
-82.99
-97.29
-110.50
-121.71
-129.78
-133.63
-132.44
-125.91
-114.42
-99.04
-81.39
-63.29
-46.40
-31.85
-20.15
-11.30
-5.06
-1.05
1.13
1.96
2.10
2.32
3.38
5.74
9.35
13.48
16.97
18.63
17.71
14.27
9.18
3.80
-0.59
-3.22
-3.95
-3.11
-1.19
1.34
4.02
6.36
7.73
7.55
5.57
2.10
-1.89
-5.00
-5.95
-4.08
0.42
6.60
13.22
19.37
24.73
29.62
34.55
39.84
45.40
50.86
55.85
60.30
64.46
68.68
73.05
77.22
80.46
82.00
81.35
78.52
74.01
68.64
63.32
58.75
55.35
53.08
51.51
49.92
47.52
43.70
38.17
30.88
21.80
10.83
-2.24
-17.44
-34.43
-52.38
-70.16
-86.71
-101.29
-113.38
-122.39
-127.27
-126.59
-119.00
-104.23
-83.70
-60.50
-38.58
-21.52
-11.36
-8.31
-11.09
-17.80
-26.70
-36.49
-46.31
-55.33
-62.65
-67.26
-68.31
-65.34
-58.39
-47.99
-34.98
-20.44
-5.61
8.21
19.68
27.60
31.08
29.79
24.05
14.86
3.77
-7.55
-17.70
-25.79
-31.47
-34.75
-35.88
-35.33
-34.01
-33.35
-35.11
-40.75
-50.64
-63.55
-76.82
-87.22
-92.05
-90.03
-81.40
-67.46
-49.71
-29.40
-7.38
15.55
38.52
60.60
81.22
100.41
118.65
136.32
152.94
166.95
176.11
178.53
173.73
163.01
149.02
134.50
121.20
109.34
97.92
85.74
72.23
57.81
43.54
30.44
19.02
9.20
0.67
-6.72
-12.85
-17.55
-20.86
-23.14
-24.83
-26.10
-26.61
-25.72
-23.02
-18.84
-14.47
-11.79
-12.55
-17.49
-26.08
-36.67
-47.17
-55.89
-62.09
-66.08
-68.86
-71.62
-75.20
-79.77
-84.64
-88.25
-88.35
-82.64
-69.73
-50.11
-26.61
-3.73
13.94
23.61
25.54
22.79
19.80
20.39
26.47
37.85
53.02
70.20
87.79
104.34
118.21
127.58
130.90
127.51
117.99
103.89
87.11
69.23
51.18
33.32
15.62
-2.14
-20.21
-38.80
-57.87
-76.99
-95.28
-111.72
-125.69
-137.45
-148.29
-160.14
-174.71
-192.58
-212.56
-231.79
-246.53
-253.35
-250.25
-237.17
-215.79
-188.77
-158.81
-128.12
-98.28
-70.52
-45.95
-25.60
-10.06
0.95
8.89
16.19
25.66
39.54
58.64
81.82
106.19
127.83
142.88
148.81
145.09
133.47
117.31
100.67
87.10
78.84
76.36
78.54
83.21
87.88
90.48
89.87
85.96
79.58
72.03
64.51
57.89
52.53
48.40
45.32
43.03
41.19
39.30
36.82
33.35
28.90
23.94
19.09
14.55
9.66
2.97
-7.16
-21.62
-39.81
-59.58
-77.94
-92.13
-100.37
-102.08
-97.31
-86.26
-68.99
-45.75
-17.69
12.84
42.51
68.01
87.11
99.39
105.99
108.74
109.16
107.89
104.92
100.22
94.24
87.84
81.83
76.29
70.40
63.03
53.45
42.04
30.12
19.26
10.22
2.52
-5.47
-15.62
-29.11
-45.80
-64.27
-82.29
-97.56
-108.23
-113.26
-112.44
-106.40
-96.49
-84.53
-72.48
-61.98
-54.01
-48.70
-45.43
-43.26
-41.33
-39.21
-36.94
-34.82
-33.08
-31.75
-30.65
-29.51
-28.12
-26.31
-23.85
-20.47
-15.86
-10.00
-3.36
3.06
7.92
10.17
9.48
6.54
2.96
0.60
1.01
4.84
11.87
21.27
32.16
43.89
56.14
68.70
81.20
93.02
103.39
111.65
117.47
120.80
121.71
120.17
116.10
109.45
100.50
89.90
78.62
67.63
57.74
49.33
42.48
37.01
32.67
29.34
27.15
26.59
28.42
33.48
42.26
54.48
68.96
83.92
97.61
108.97
118.10
125.97
133.82
142.24
150.55
156.83
158.43
152.99
139.12
116.95
88.04
54.81
19.95
-14.25
-46.23
-75.21
-100.88
-123.13
-141.67
-156.03
-165.70
-170.33
-170.08
-165.66
-158.25
-149.19
-139.69
-130.65
-122.67
-116.28
-111.99
-110.35
-111.72
-116.12
-122.96
-131.14
-139.22
-145.77
-149.63
-150.17
-147.36
-141.80
-134.61
-127.13
-120.69
-116.36
-114.78
-116.21
-120.53
-127.28
-135.71
-144.80
-153.52
-161.00
-166.68
-170.23
-171.23
-168.82
-161.72
-148.50
-128.14
-100.39
-65.82
-25.76
18.02
63.24
107.09
146.43
178.16
200.10
211.66
214.11
210.10
202.72
194.50
186.81
179.89
173.14
165.70
156.72
145.57
131.89
115.70
97.50
78.41
60.06
44.33
32.87
26.63
25.57
28.71
34.49
41.28
47.80
53.32
57.57
60.58
62.51
63.55
63.96
64.02
63.83
63.29
62.06
59.81
56.55
52.84
49.56
47.43
46.48
45.83
44.06
39.94
33.08
24.01
13.76
3.12
-7.95
-20.27
-34.78
-51.68
-69.91
-87.21
-100.87
-108.43
-108.38
-100.35
-85.09
-64.26
-40.10
-15.03
8.75
29.52
46.30
58.80
67.07
71.12
70.77
65.90
56.78
44.40
30.35
16.81
6.21
0.33
-0.41
2.90
8.17
13.11
16.00
15.72
12.32
7.06
1.45
-3.47
-7.36
-10.05
-11.30
-10.72
-8.73
-5.79
-1.93
2.74
7.59
11.35
12.76
10.57
3.41
-11.03
-34.33
-65.80
-102.45
-139.52
-171.57
-193.13
-200.51
-187.95
-156.80
-118.00
-84.80
-63.92
-54.26
-51.44
-50.98
-50.60
-50.06
-50.80
-53.59
-56.07
-56.49
-53.80
-48.52
-41.51
-33.95
-26.59
-20.00
-13.76
-6.26
4.19
18.84
33.29
44.69
51.20
52.49
49.10
42.40
34.13
25.43
16.48
6.65
-4.01
-15.11
-25.80
-35.31
-42.99
-48.33
-51.14
-51.56
-50.24
-47.67
-44.76
-42.47
-41.45
-41.48
-41.29
-39.04
-33.05
-22.73
-8.59
7.60
23.52
37.09
47.01
52.84
54.79
53.45
49.59
44.18
38.17
32.28
26.82
21.62
16.23
10.20
3.43
-3.70
-10.37
-15.77
-19.51
-21.87
-23.84
-26.81
-32.20
-40.90
-52.82
-66.52
-79.16
-87.04
-86.59
-75.70
-54.68
-26.54
3.84
31.16
51.39
63.03
67.06
66.11
63.16
61.01
61.45
64.90
70.46
76.31
80.53
81.59
78.70
71.86
62.37
52.11
43.04
36.53
33.13
33.09
35.79
39.74
42.50
42.59
39.53
33.97
26.97
19.64
14.05
11.11
10.02
7.44
2.04
-5.90
-14.59
-21.93
-25.69
-21.24
-5.87
19.24
46.40
70.24
87.36
97.05
100.08
98.93
101.56
114.11
137.57
163.36
186.94
206.41
222.44
235.50
246.25
261.40
285.66
318.82
350.43
376.76
397.53
414.40
426.87
395.97
301.31
152.55
19.96
-79.31
-145.17
-191.65
-223.15
-243.08
-254.56
-254.42
-241.02
-217.38
-196.51
-184.15
-181.36
-185.25
-192.98
-201.43
-203.09
-192.58
-169.74
-143.85
-120.11
-101.20
-87.51
-79.80
-78.53
-80.78
-83.75
-86.80
-94.15
-106.47
-122.13
-137.98
-151.68
-161.82
-166.51
-164.22
-155.16
-142.07
-125.73
-105.58
-80.65
-51.33
-19.47
12.80
44.43
74.02
99.45
119.68
134.95
146.59
156.16
164.99
173.71
183.32
192.70
198.86
198.48
189.56
171.97
146.90
116.30
73.93
22.69
-27.41
-65.73
-87.84
-96.33
-96.90
-94.83
-93.17
-92.85
-92.35
-91.04
-89.89
-90.39
-92.47
-94.13
-92.68
-86.45
-75.70
-61.41
-46.02
-32.82
-24.74
-23.76
-29.55
-39.30
-48.54
-52.58
-47.40
-31.95
-9.15
15.22
35.17
46.77
49.15
43.78
34.15
22.01
8.60
-5.29
-18.64
-29.85
-37.19
-39.79
-37.74
-33.70
-30.89
-30.92
-33.22
-35.66
-35.81
-33.04
-27.56
-20.86
-14.70
-9.98
-6.04
-1.39
5.26
14.33
24.87
34.54
40.52
40.98
36.07
28.11
20.41
15.81
15.77
19.66
25.72
31.64
36.32
39.74
42.76
46.17
49.79
52.66
53.01
49.73
42.37
31.50
18.14
2.97
-13.76
-32.30
-52.57
-74.75
-94.26
-106.77
-110.41
-106.65
-98.70
-88.61
-79.80
-71.25
-62.57
-54.33
-47.73
-43.19
-38.39
-31.34
-20.02
-3.69
16.80
38.64
56.92
66.57
65.33
55.13
40.39
26.78
19.35
19.21
25.22
35.39
47.63
60.24
72.47
81.89
87.10
87.69
83.50
73.93
58.40
36.99
10.76
-17.71
-45.62
-69.73
-85.17
-88.57
-81.50
-70.04
-60.28
-57.06
-57.96
-59.73
-59.95
-57.73
-52.39
-44.66
-34.95
-22.49
-6.60
13.27
36.00
59.62
80.58
93.96
96.31
88.21
74.45
60.18
49.67
45.48
46.73
51.92
58.61
64.60
68.82
72.32
74.15
73.64
69.58
61.11
47.89
28.74
3.02
-28.38
-61.60
-93.48
-121.25
-143.91
-161.72
-168.86
-162.79
-145.32
-129.14
-116.03
-105.53
-94.03
-81.80
-70.41
-61.01
-54.84
-51.72
-49.82
-45.01
-35.18
-20.19
-1.93
17.25
35.93
52.64
66.63
78.01
88.52
98.50
107.19
113.21
115.78
115.96
114.92
113.46
111.52
108.95
104.05
94.54
78.46
52.70
19.35
-15.69
-45.88
-69.55
-87.48
-100.51
-109.45
-112.62
-110.26
-103.26
-93.54
-83.37
-74.35
-66.66
-59.34
-51.14
-41.00
-28.54
-13.34
4.09
22.14
38.88
51.85
59.50
62.24
62.45
62.34
62.61
61.81
57.93
51.83
44.42
38.12
35.36
37.04
42.30
49.09
55.09
57.14
53.64
43.96
28.40
7.26
-19.24
-49.61
-78.67
-99.57
-107.68
-102.97
-89.71
-73.68
-59.81
-52.10
-49.28
-48.74
-48.36
-47.31
-45.67
-43.87
-41.81
-37.86
-31.08
-20.92
-7.56
7.87
23.68
38.27
50.82
61.26
70.05
77.65
81.72
80.75
75.08
66.55
56.81
46.52
35.79
25.07
15.30
7.76
3.45
2.21
3.19
4.38
4.49
3.24
1.13
-1.32
-3.77
-5.91
-7.67
-9.07
-10.27
-11.21
-12.02
-12.67
-13.32
-14.25
-15.53
-17.13
-18.93
-20.88
-22.77
-24.33
-25.21
-25.19
-24.17
-22.05
-18.95
-15.19
-11.28
-7.74
-5.01
-3.31
-2.70
-3.01
-3.82
-4.56
-4.65
-3.72
-1.59
1.54
5.22
8.86
11.92
14.10
15.38
15.95
16.01
15.68
14.95
13.82
12.35
10.79
9.46
8.62
8.34
8.39
8.33
7.67
6.13
3.71
0.64
-2.69
-5.95
-8.97
-11.64
-13.92
-15.67
-16.67
-16.70
-15.65
-13.60
-10.84
-7.70
-4.51
-1.49
1.23
3.51
5.17
6.07
6.18
5.64
4.85
4.21
4.06
4.47
5.23
6.00
6.40
6.27
5.63
4.67
3.62
2.68
1.95
1.36
0.80
0.09
-0.93
-2.27
-3.84
-5.35
-6.46
-6.80
-6.17
-4.57
-2.27
0.29
2.64
4.48
5.73
6.53
7.19
7.92
8.76
9.59
10.16
10.30
9.87
8.85
7.20
4.87
1.86
-1.65
-5.30
-8.58
-11.04
-12.55
-13.34
-13.96
-14.95
-16.58
-18.68
-20.73
-22.12
-22.44
-21.56
-19.60
-16.76
-13.16
-8.90
-4.18
0.61
4.87
8.02
9.69
9.91
9.11
7.86
6.64
5.73
5.14
4.76
4.49
4.30
4.27
4.53
5.18
6.22
7.49
8.66
9.29
8.97
7.49
4.92
1.61
-1.89
-5.03
-7.40
-8.79
-9.16
-8.59
-7.21
-5.16
-2.63
0.14
2.85
5.18
6.89
7.84
8.03
7.60
6.75
5.67
4.50
3.30
2.04
0.64
-1.04
-3.16
-5.84
-9.10
-12.78
-16.50
-19.75
-22.05
-23.15
-23.10
-22.28
-21.22
-20.39
-19.94
-19.71
-19.29
-18.22
-16.23
-13.27
-9.52
-5.28
-0.89
3.33
7.11
10.21
12.50
14.01
14.91
15.48
16.03
16.73
17.64
18.68
19.76
20.79
21.72
22.51
23.05
23.23
22.94
22.06
20.56
18.49
15.89
12.87
9.54
6.13
2.99
0.56
-0.71
-0.50
1.25
4.29
8.07
11.93
15.23
17.56
18.79
18.98
18.35
17.12
15.49
13.65
11.81
10.18
8.93
8.05
7.42
6.78
5.93
4.83
3.65
2.71
2.23
2.29
2.70
3.12
3.22
2.83
2.03
1.06
0.32
0.14
0.71
2.07
4.04
6.33
8.58
10.46
11.72
12.27
12.19
11.71
11.11
10.69
10.62
10.93
11.50
12.16
12.74
13.16
13.44
13.68
14.04
14.69
15.74
17.13
18.57
19.58
19.61
18.29
15.60
12.00
8.28
5.32
3.83
4.13
6.15
9.50
13.63
18.00
22.10
25.55
28.10
29.70
30.54
31.05
31.81
33.38
36.09
39.93
44.58
49.46
53.87
57.11
58.37
56.77
51.43
41.67
27.29
8.77
-12.84
-36.15
-59.78
-82.48
-103.07
-120.30
-132.75
-139.12
-138.72
-131.96
-120.35
-106.15
-91.57
-78.13
-66.37
-56.09
-46.82
-38.26
-30.45
-23.51
-17.40
-11.68
-5.76
0.97
8.81
17.69
27.18
36.68
45.65
53.81
61.37
69.06
78.09
89.81
105.01
123.15
141.89
157.14
164.00
158.09
136.71
100.12
51.89
-1.75
-53.27
-95.69
-124.19
-137.14
-136.19
-125.99
-111.96
-98.48
-87.71
-79.66
-73.05
-66.07
-57.08
-44.86
-29.95
-13.67
2.56
17.39
29.48
37.65
41.55
42.15
41.54
40.22
37.97
34.44
29.06
21.03
9.26
-6.67
-25.97
-46.63
-68.47
-91.50
-115.22
-139.27
-163.93
-190.52
-220.30
-253.79
-274.73
-270.04
-237.00
-185.61
-130.68
-82.38
-44.71
-17.82
-1.04
3.76
-3.11
-19.51
-39.69
-55.90
-60.50
-48.93
-20.74
20.21
69.96
114.30
139.18
144.00
134.20
116.62
93.94
70.05
48.40
31.80
20.98
16.39
18.31
25.44
35.56
46.07
55.23
62.08
66.72
69.41
71.38
74.23
78.51
84.03
90.39
97.60
105.61
114.29
123.04
131.45
139.30
145.89
150.65
153.55
155.25
156.45
157.51
158.21
157.90
155.67
150.25
140.41
125.16
103.97
76.75
44.30
8.63
-26.90
-58.48
-83.28
-100.54
-111.80
-119.97
-127.76
-136.38
-145.11
-152.14
-155.79
-155.31
-150.95
-143.24
-132.45
-118.58
-101.92
-83.56
-65.44
-49.82
-38.44
-31.99
-30.02
-31.33
-34.41
-37.76
-40.03
-40.25
-38.04
-33.85
-28.86
-24.59
-22.30
-22.39
-24.23
-26.52
-27.82
-27.21
-24.53
-20.26
-14.97
-8.94
-1.88
6.82
17.52
29.93
42.93
54.94
64.49
70.82
74.02
74.85
74.22
72.76
70.77
68.20
64.90
60.77
55.71
49.69
42.67
34.76
26.27
17.69
9.51
1.98
-5.10
-12.26
-20.17
-29.26
-39.54
-50.55
-61.61
-72.03
-81.20
-88.52
-93.28
-94.69
-92.13
-85.38
-74.93
-61.87
-47.72
-33.94
-21.68
-11.56
-3.68
2.19
6.60
10.32
14.28
19.33
25.94
33.82
41.97
48.77
52.44
51.84
47.04
39.29
30.59
22.99
17.70
15.20
15.07
16.23
17.46
17.98
17.56
16.53
15.76
15.99
18.21
22.94
29.89
38.13
46.68
54.71
61.77
67.97
73.17
77.65
81.64
85.14
88.10
90.57
92.09
91.61
87.65
75.03
51.79
21.29
-9.55
-34.76
-51.60
-60.55
-65.83
-68.45
-68.69
-66.43
-62.46
-58.92
-59.02
-62.61
-69.78
-79.12
-87.62
-92.54
-91.73
-84.64
-72.37
-57.04
-40.62
-24.87
-10.53
2.66
14.65
25.24
34.08
40.88
45.60
48.81
50.81
52.09
53.67
55.62
57.26
57.87
57.04
54.91
52.15
48.78
44.83
41.45
38.84
36.07
32.48
27.87
22.58
17.37
11.94
6.13
2.02
0.86
2.26
5.58
9.81
13.62
15.82
14.38
8.73
2.38
-1.67
-3.08
-3.05
-4.28
-10.04
-13.60
-10.22
-12.93
-25.82
-42.61
-59.89
-74.82
-85.08
-89.07
-86.32
-79.15
-70.71
-61.51
-52.44
-45.18
-40.26
-37.32
-35.49
-33.64
-31.74
-29.70
-25.47
-18.16
-8.83
1.21
10.77
19.05
25.73
30.22
32.27
33.20
33.96
34.56
34.94
34.93
34.25
32.63
29.54
24.71
18.85
12.63
6.38
0.45
-4.88
-9.37
-12.84
-15.39
-17.29
-18.76
-20.25
-22.25
-24.91
-27.90
-30.47
-31.75
-31.10
-28.40
-24.07
-18.88
-13.55
-8.54
-3.96
0.36
4.56
8.62
12.24
14.97
16.39
16.30
14.80
12.30
9.32
6.35
3.66
1.31
-0.73
-2.50
-3.94
-4.92
-5.43
-5.66
-6.02
-7.02
-9.08
-12.32
-16.48
-20.94
-24.86
-27.36
-27.73
-25.63
-21.15
-14.78
-7.36
0.17
6.96
12.38
16.13
18.20
18.77
18.13
16.56
14.25
11.32
7.88
4.09
0.15
-3.68
-7.16
-10.23
-12.98
-15.63
-18.38
-21.31
-24.32
-27.24
-29.93
-32.44
-34.93
-37.55
-40.22
-42.62
-44.26
-44.68
-43.71
-41.37
-37.80
-32.99
-26.81
-19.18
-10.47
-1.63
5.95
11.01
12.90
11.93
9.10
5.63
2.40
-0.37
-3.03
-6.07
-9.85
-14.38
-19.41
-24.59
-29.61
-34.23
-38.17
-41.11
-42.69
-42.69
-41.19
-38.67
-35.83
-33.31
-31.30
-29.28
-26.15
-20.66
-11.94
0.01
14.25
29.25
43.38
55.37
64.50
70.47
73.18
72.57
68.68
61.71
52.10
40.57
27.86
14.75
1.85
-10.30
-21.31
-30.98
-39.36
-46.77
-53.70
-60.61
-67.76
-75.11
-82.22
-88.33
-92.43
-93.54
-91.03
-84.87
-75.67
-64.58
-52.87
-41.52
-31.05
-21.66
-13.46
-6.73
-1.98
0.37
0.29
-1.72
-4.83
-8.27
-11.65
-15.04
-18.75
-23.03
-27.85
-32.95
-37.95
-42.54
-46.51
-49.72
-52.07
-53.65
-54.86
-56.35
-58.66
-61.73
-64.59
-65.49
-62.58
-54.67
-41.89
-25.55
-7.63
9.99
26.11
40.19
52.06
61.58
68.47
72.49
73.67
72.40
69.39
65.35
60.80
55.95
50.73
45.04
38.83
32.19
25.29
18.31
11.34
4.43
-2.49
-9.58
-17.13
-25.58
-35.25
-46.11
-57.39
-67.49
-74.27
-75.61
-70.19
-57.96
-40.19
-18.96
3.44
24.98
44.00
59.05
68.89
72.74
70.83
64.81
57.56
52.32
51.53
55.93
64.31
74.28
83.31
89.76
93.24
94.43
94.40
94.08
93.94
94.04
94.24
94.29
93.89
92.69
90.38
86.89
82.59
78.32
75.21
74.27
75.99
80.18
85.99
92.38
98.59
104.43
110.33
117.09
125.32
134.93
144.88
153.32
158.14
157.63
151.16
139.37
123.94
106.99
90.44
75.50
62.60
51.56
41.87
32.95
24.23
15.14
5.13
-6.19
-18.87
-32.29
-45.11
-55.47
-61.44
-61.67
-55.82
-44.59
-29.38
-11.75
6.81
24.95
41.27
54.32
62.89
66.56
65.90
62.16
56.52
49.37
40.16
28.07
12.95
-4.05
-20.62
-34.16
-42.93
-46.69
-46.59
-44.39
-41.51
-38.53
-35.15
-30.64
-24.38
-16.27
-6.78
3.17
12.59
20.68
27.10
31.89
35.33
37.65
38.95
39.22
38.46
36.87
34.80
32.52
29.99
26.67
21.69
14.12
3.52
-9.88
-25.31
-41.81
-58.82
-76.32
-94.70
-114.23
-134.61
-154.87
-173.70
-190.04
-203.49
-214.15
-222.23
-227.50
-229.10
-225.89
-217.11
-202.87
-184.28
-163.06
-140.89
-118.98
-97.95
-78.15
-59.86
-43.57
-29.70
-18.43
-9.41
-1.88
5.12
12.29
19.80
27.23
33.74
38.33
40.20
38.76
33.69
24.83
12.18
-4.01
-23.08
-43.94
-65.09
-84.85
-101.58
-113.87
-120.61
-121.05
-114.95
-102.71
-85.43
-64.86
-43.05
-22.00
-3.31
12.02
23.70
32.14
38.39
43.93
50.35
58.81
69.66
82.18
94.85
105.82
113.56
117.28
116.96
113.24
106.96
98.91
89.66
79.48
68.32
55.92
41.89
26.00
8.47
-9.77
-27.08
-41.45
-51.08
-54.99
-53.29
-47.16
-38.30
-28.44
-18.90
-10.51
-3.75
1.03
3.52
3.62
1.55
-2.04
-6.23
-10.05
-12.82
-14.26
-14.50
-13.89
-12.82
-11.54
-10.18
-8.73
-7.15
-5.42
-3.61
-1.83
-0.20
1.10
1.89
2.01
1.43
0.42
-0.39
-0.04
2.40
7.48
15.00
24.04
33.23
41.30
47.50
51.89
55.16
58.31
62.17
67.10
72.93
79.08
84.84
89.67
93.39
96.22
98.64
101.16
104.21
108.04
112.81
118.45
124.46
129.61
131.82
128.58
117.83
98.81
72.58
41.78
9.85
-19.88
-44.84
-63.31
-74.31
-77.39
-72.84
-61.97
-47.32
-32.32
-20.39
-13.91
-13.47
-17.86
-24.66
-31.34
-36.10
-38.41
-38.93
-38.94
-39.69
-41.67
-44.48
-47.00
-48.01
-46.77
-43.48
-39.14
-35.17
-32.72
-32.26
-33.49
-35.63
-37.84
-39.47
-40.10
-39.40
-36.95
-32.37
-25.51
-16.66
-6.60
3.56
12.69
19.94
24.88
27.53
28.25
27.53
25.89
23.67
21.04
17.95
14.23
9.71
4.35
-1.63
-7.73
-13.27
-17.55
-20.05
-20.65
-19.66
-17.75
-15.77
-14.51
-14.56
-16.17
-19.22
-23.13
-26.94
-29.50
-29.75
-27.08
-21.56
-13.93
-5.31
3.16
10.64
16.63
20.89
23.26
23.55
21.69
17.85
12.58
6.70
1.09
-3.63
-7.25
-9.88
-11.85
-13.44
-14.76
-15.83
-16.67
-17.43
-18.40
-19.98
-22.49
-26.10
-30.75
-36.11
-41.64
-46.53
-49.85
-50.71
-48.53
-43.24
-35.39
-25.97
-16.15
-6.97
0.87
7.00
11.30
13.78
14.53
13.69
11.54
8.46
4.81
0.92
-2.89
-6.46
-9.78
-12.90
-15.84
-18.54
-20.82
-22.55
-23.68
-24.23
-24.54
-25.19
-26.67
-29.02
-31.66
-33.48
-33.30
-30.35
-24.30
-15.65
-5.46
5.15
15.44
25.02
33.63
40.81
45.96
49.38
51.39
52.21
52.15
51.71
51.39
51.35
51.25
50.48
50.12
50.80
52.29
54.00
55.78
58.02
61.30
65.88
71.61
80.55
93.34
108.74
124.66
140.14
155.70
172.71
192.18
213.90
239.23
266.36
290.16
304.45
305.40
292.65
268.59
236.84
181.06
99.55
5.75
-80.24
-145.56
-188.11
-212.05
-222.67
-224.21
-219.71
-208.09
-189.77
-168.02
-148.53
-133.68
-123.69
-117.16
-112.20
-107.44
-99.65
-87.51
-72.05
-55.56
-39.55
-24.68
-11.13
1.83
13.59
24.81
35.40
44.30
50.17
52.52
51.69
48.62
44.36
39.46
34.98
31.19
27.50
22.88
16.66
8.68
-0.57
-10.15
-19.02
-25.86
-29.87
-31.18
-30.78
-30.12
-30.70
-33.58
-39.07
-46.68
-55.00
-62.13
-66.15
-65.67
-60.23
-50.47
-37.93
-24.47
-11.88
-1.37
6.46
11.47
13.68
13.18
10.14
4.94
-1.76
-9.13
-16.39
-23.03
-28.91
-34.28
-39.52
-44.95
-50.63
-56.30
-61.49
-65.73
-68.80
-70.86
-72.41
-74.11
-76.52
-79.91
-84.19
-88.98
-93.73
-97.87
-100.82
-102.07
-101.22
-98.00
-92.31
-84.19
-73.85
-61.63
-48.10
-34.15
-20.94
-9.71
-1.40
3.66
5.90
6.39
6.44
7.24
9.50
13.43
18.80
25.08
31.69
38.06
43.72
48.23
51.19
52.21
51.05
47.71
42.64
36.61
30.55
25.29
21.39
19.17
18.95
21.16
26.26
34.46
45.42
58.14
71.19
83.17
93.20
100.96
106.63
110.44
112.45
112.56
110.58
106.51
100.52
92.82
83.53
72.62
60.10
46.10
31.10
15.80
0.99
-12.80
-25.34
-36.76
-47.38
-57.50
-67.23
-76.40
-84.53
-90.88
-94.62
-94.97
-91.35
-83.58
-71.89
-57.01
-40.13
-22.75
-6.44
7.43
17.97
25.00
29.03
31.09
32.51
34.46
37.73
42.43
48.03
53.39
57.19
58.27
56.12
51.04
44.13
36.87
30.71
26.75
25.56
27.12
30.82
35.38
38.93
39.35
34.87
24.82
9.99
-7.51
-25.02
-40.43
-52.95
-63.21
-72.66
-82.55
-93.17
-103.72
-112.81
-119.28
-122.78
-123.83
-123.40
-122.27
-120.67
-118.32
-114.65
-109.33
-102.39
-94.19
-85.22
-75.93
-66.69
-57.92
-50.08
-43.61
-38.78
-35.51
-33.54
-32.54
-32.37
-33.04
-34.40
-35.95
-36.73
-35.59
-31.71
-25.03
-16.37
-7.09
1.51
8.68
14.37
19.04
23.10
26.60
29.13
30.08
29.08
26.25
22.30
18.25
14.96
12.85
11.73
10.99
9.90
7.99
5.15
1.68
-2.01
-5.60
-8.98
-12.29
-15.81
-19.88
-24.77
-30.59
-37.20
-44.17
-50.71
-55.83
-58.58
-58.31
-54.88
-48.69
-40.47
-31.05
-21.16
-11.39
-2.24
5.78
12.15
16.43
18.40
18.13
15.94
12.25
7.47
1.90
-4.23
-10.85
-17.93
-25.37
-32.78
-39.30
-43.48
-43.55
-37.88
-25.65
-7.30
15.47
40.12
64.03
85.19
102.56
116.04
126.14
133.68
139.48
144.31
148.85
153.59
158.67
163.80
168.31
171.32
172.14
170.58
167.09
162.55
157.97
154.01
150.69
147.30
142.70
135.71
125.49
111.71
94.43
74.07
51.32
27.17
2.88
-20.19
-41.00
-59.24
-75.46
-90.86
-106.79
-124.16
-143.18
-163.47
-184.25
-204.62
-223.46
-239.19
-249.60
-252.19
-244.85
-226.68
-198.63
-163.36
-124.46
-85.46
-48.89
-16.02
12.77
37.38
57.50
72.65
82.55
87.55
88.86
88.15
86.96
86.10
85.51
84.49
82.29
78.68
74.21
69.92
66.88
65.57
65.58
65.72
64.44
60.34
52.63
41.32
27.17
11.61
-3.44
-15.98
-24.31
-27.54
-26.00
-21.18
-15.24
-10.26
-7.60
-7.61
-9.82
-13.41
-17.63
-22.10
-26.79
-31.97
-37.94
-44.88
-52.70
-60.91
-68.71
-75.12
-79.36
-80.98
-80.09
-77.20
-73.12
-68.69
-64.74
-61.99
-61.03
-62.09
-64.88
-68.46
-71.36
-71.95
-68.99
-62.07
-51.76
-39.44
-26.74
-14.99
-4.93
3.39
10.24
15.96
20.67
24.30
26.74
27.96
28.14
27.57
26.58
25.38
24.02
22.45
20.63
18.68
16.86
15.60
15.34
16.36
18.63
21.73
24.87
27.04
27.17
24.33
18.06
8.63
-2.89
-14.61
-24.29
-29.99
-30.57
-26.07
-17.59
-6.88
4.21
14.19
22.12
27.61
30.67
31.52
30.47
27.79
23.75
18.55
12.45
5.70
-1.39
-8.53
-15.51
-22.20
-28.52
-34.39
-39.69
-44.28
-48.04
-50.86
-52.72
-53.61
-53.60
-52.76
-51.15
-48.77
-45.52
-41.37
-36.37
-30.75
-24.85
-18.95
-13.12
-7.26
-1.19
5.05
11.09
16.36
20.32
22.80
24.16
25.22
26.87
29.79
34.11
39.33
44.47
48.36
50.07
49.26
46.28
42.00
37.46
33.35
29.85
26.62
23.07
18.67
13.12
6.35
-1.60
-10.65
-20.61
-31.00
-40.90
-48.99
-53.64
-53.22
-46.42
-32.69
-12.49
12.39
39.06
64.07
84.27
97.71
104.16
104.91
102.12
97.93
93.84
90.49
87.94
86.01
84.51
83.28
82.07
80.48
78.03
74.38
69.53
63.87
58.04
52.68
48.14
44.33
40.82
37.04
32.60
27.49
22.03
16.74
12.06
8.21
5.21
3.00
1.49
0.60
0.24
0.22
0.43
0.93
2.02
4.17
7.75
12.77
18.77
25.11
31.21
36.86
42.24
47.76
53.68
59.99
66.35
72.23
77.12
80.57
82.25
81.97
79.65
75.46
69.76
63.11
56.17
49.55
43.70
38.80
34.77
31.32
28.04
24.55
20.57
15.97
10.78
5.08
-0.98
-7.19
-13.29
-18.95
-23.87
-27.91
-31.11
-33.70
-35.98
-38.28
-40.80
-43.67
-46.93
-50.55
-54.48
-58.63
-62.93
-67.25
-71.47
-75.52
-79.41
-83.20
-86.93
-90.44
-93.27
-94.75
-94.21
-91.35
-86.39
-80.01
-73.04
-66.19
-59.81
-54.02
-48.96
-44.93
-42.30
-41.22
-41.36
-41.91
-41.80
-40.17
-36.81
-32.17
-27.22
-23.02
-20.31
-19.30
-19.72
-21.03
-22.73
-24.61
-26.80
-29.74
-34.04
-40.17
-48.31
-57.98
-67.94
-76.27
-80.87
-80.04
-73.15
-60.85
-44.86
-27.27
-9.90
6.21
20.74
33.71
44.99
54.15
60.59
63.89
64.22
62.30
59.16
55.77
52.74
50.15
47.75
45.13
42.06
38.48
34.57
30.56
26.62
22.74
18.76
14.45
9.54
3.85
-2.69
-10.04
-17.99
-26.04
-33.35
-38.76
-41.03
-39.23
-33.17
-23.60
-12.10
-0.55
9.40
16.82
21.61
24.32
25.80
26.86
28.02
29.47
31.09
32.58
33.52
33.52
32.33
29.89
26.33
22.00
17.37
13.06
9.66
7.63
7.09
7.72
8.82
9.56
9.29
7.69
4.96
1.65
-1.33
-2.79
-1.45
3.80
13.48
27.19
43.47
60.14
74.88
85.83
91.92
92.90
88.99
80.61
68.26
52.65
34.84
16.32
-1.32
-16.75
-29.18
-38.46
-44.80
-48.55
-49.91
-48.90
-45.48
-39.73
-31.95
-22.63
-12.35
-1.62
9.19
19.90
30.46
40.94
51.48
62.22
73.25
84.51
95.79
106.78
117.15
126.66
135.28
143.19
150.67
158.08
165.62
173.40
181.33
189.15
196.36
202.20
205.54
205.04
199.43
187.82
169.90
145.98
116.83
83.36
46.60
7.71
-31.75
-69.76
-104.21
-133.36
-156.50
-174.21
-188.10
-200.20
-212.16
-224.68
-237.34
-248.86
-257.59
-262.11
-261.65
-256.25
-246.64
-233.96
-219.38
-203.87
-188.14
-172.69
-157.97
-144.44
-132.55
-122.60
-114.70
-108.74
-104.44
-101.49
-99.55
-98.35
-97.66
-97.32
-97.16
-97.01
-96.66
-95.97
-94.87
-93.56
-92.44
-92.08
-93.00
-95.42
-99.02
-102.83
-105.40
-105.16
-100.95
-92.44
-80.30
-65.99
-51.21
-37.42
-25.50
-15.82
-8.45
-3.46
-1.02
-1.24
-4.09
-9.23
-16.12
-24.19
-32.92
-41.89
-50.70
-58.89
-65.93
-71.39
-75.10
-77.38
-78.97
-80.93
-84.43
-90.44
-99.41
-110.93
-123.56
-134.85
-141.83
-141.67
-132.56
-114.18
-87.65
-54.97
-18.27
20.81
61.15
101.66
140.64
175.52
203.20
220.99
227.64
223.98
212.76
197.87
183.12
171.23
163.35
159.16
157.48
156.94
156.46
155.39
153.27
149.54
143.47
134.30
121.68
105.96
88.27
70.22
53.35
38.69
26.71
17.50
11.19
8.10
8.75
13.44
21.98
33.56
46.89
60.50
72.98
83.17
90.12
93.15
91.86
86.22
76.65
64.04
49.64
34.79
20.73
8.24
-2.49
-11.79
-20.19
-28.14
-35.70
-42.61
-48.59
-53.70
-58.47
-63.56
-69.20
-74.66
-78.19
-77.59
-71.13
-58.40
-40.58
-20.07
0.43
18.77
33.75
45.12
53.23
58.49
61.24
61.73
60.29
57.53
54.25
51.26
49.10
47.75
46.59
44.58
40.66
34.21
25.30
14.70
3.55
-7.09
-16.61
-24.99
-32.69
-40.23
-47.71
-54.41
-58.80
-58.82
-52.63
-39.39
-19.76
4.13
29.30
52.77
72.46
87.45
97.84
104.15
106.83
106.07
101.96
94.82
85.48
75.23
65.49
57.35
51.25
46.87
43.31
39.48
34.50
27.94
19.87
10.74
1.12
-8.53
-18.10
-27.85
-38.36
-50.31
-63.99
-78.87
-93.29
-104.64
-109.94
-106.77
-94.19
-73.09
-46.02
-16.44
12.27
37.54
57.96
73.12
83.18
88.47
89.37
86.25
79.69
70.49
59.67
48.33
37.47
27.82
19.84
13.74
9.55
7.20
6.52
7.12
8.32
9.14
8.45
5.22
-1.10
-10.42
-22.02
-34.84
-47.76
-59.78
-69.99
-77.49
-81.30
-80.57
-74.90
-64.68
-51.26
-36.65
-22.96
-11.79
-3.82
1.17
3.92
5.19
5.35
4.32
1.86
-2.18
-7.65
-14.10
-21.13
-28.52
-36.30
-44.57
-53.23
-61.81
-69.67
-76.20
-81.19
-84.91
-87.88
-90.69
-93.69
-97.00
-100.53
-103.98
-106.74
-107.80
-105.83
-99.48
-87.94
-71.41
-51.22
-29.52
-8.69
9.46
24.00
34.86
42.57
47.87
51.45
54.00
56.14
58.45
61.25
64.50
67.81
70.66
72.62
73.47
73.27
72.12
70.08
67.20
63.57
59.44
55.11
50.86
46.68
42.39
37.74
32.72
27.59
22.86
19.02
16.39
15.08
15.16
16.82
20.38
26.10
33.98
43.58
54.17
64.97
75.47
85.48
95.06
104.17
112.52
119.57
124.75
127.63
128.11
126.30
122.42
116.70
109.43
101.06
92.33
84.09
77.00
71.30
66.68
62.51
58.18
53.45
48.47
43.69
39.52
36.09
33.22
30.40
26.90
21.91
14.72
4.89
-7.49
-21.70
-36.42
-50.02
-61.01
-68.36
-71.78
-71.63
-68.80
-64.45
-59.82
-56.06
-54.13
-54.63
-57.65
-62.77
-69.12
-75.66
-81.49
-86.19
-89.92
-93.44
-97.73
-103.71
-111.88
-122.16
-134.01
-146.63
-159.17
-170.87
-181.08
-189.29
-195.33
-199.50
-202.51
-205.14
-207.50
-208.58
-206.18
-197.69
-181.25
-156.74
-126.10
-92.72
-60.19
-31.30
-7.41
11.30
25.33
35.28
41.68
44.98
45.79
44.84
42.90
40.57
38.21
35.94
33.68
31.29
28.64
25.70
22.55
19.41
16.56
14.29
12.74
11.86
11.39
10.93
10.06
8.47
5.94
2.42
-2.02
-7.06
-12.07
-16.02
-17.68
-15.99
-10.52
-1.73
9.13
20.47
30.93
39.81
47.11
53.23
58.50
63.03
66.57
68.71
69.05
67.31
63.42
57.54
50.07
41.76
33.50
26.21
20.56
16.82
14.78
13.87
13.34
12.46
10.78
8.19
5.01
1.80
-0.90
-2.81
-4.16
-5.62
-8.18
-12.74
-19.78
-28.82
-38.28
-45.67
-48.24
-44.03
-32.69
-15.83
3.47
21.75
36.51
46.93
53.83
58.94
63.83
69.21
74.82
79.86
83.61
85.86
86.95
87.51
88.14
89.16
90.57
92.16
93.70
95.13
96.55
98.11
99.87
101.72
103.39
104.61
105.37
105.97
106.92
108.60
110.90
113.03
113.80
112.12
107.65
101.06
93.74
87.07
81.48
76.09
68.95
57.99
42.15
21.95
-0.47
-22.21
-40.65
-54.21
-62.62
-66.52
-66.97
-64.91
-61.09
-56.10
-50.59
-45.26
-40.71
-37.24
-34.76
-32.82
-30.79
-28.17
-24.73
-20.64
-16.29
-12.10
-8.36
-5.16
-2.58
-0.94
-0.83
-2.92
-7.47
-13.86
-20.42
-24.93
-25.34
-20.64
-11.29
0.95
13.88
25.86
36.45
46.72
58.83
75.09
96.80
123.21
151.07
175.23
190.17
191.95
179.76
156.26
126.55
96.17
69.22
47.35
29.95
15.26
1.56
-12.32
-27.01
-43.03
-60.96
-81.18
-103.32
-125.97
-146.89
-163.61
-174.22
-177.91
-174.91
-166.11
-152.66
-135.66
-116.26
-95.64
-75.07
-55.70
-38.31
-23.31
-10.85
-1.06
5.83
9.54
10.01
7.52
2.79
-3.21
-9.55
-15.64
-21.29
-26.65
-32.00
-37.46
-42.88
-47.80
-51.72
-54.24
-55.40
-55.69
-55.85
-56.66
-58.65
-61.99
-66.58
-72.10
-77.99
-83.41
-87.22
-88.22
-85.49
-78.80
-68.90
-57.29
-45.83
-36.03
-28.72
-23.87
-20.86
-18.92
-17.44
-16.15
-14.96
-13.85
-12.71
-11.34
-9.56
-7.37
-5.07
-3.14
-2.01
-1.81
-2.17
-2.34
-1.56
0.62
3.93
7.44
9.84
9.98
7.38
2.54
-3.16
-7.89
-9.98
-8.37
-2.95
5.53
15.61
25.50
33.50
38.43
39.92
38.52
35.52
32.44
30.45
29.93
30.33
30.50
29.24
25.84
20.40
13.65
6.59
-0.02
-5.88
-11.11
-15.96
-20.59
-24.95
-29.00
-33.01
-37.65
-43.68
-51.42
-60.18
-68.13
-72.85
-72.36
-65.95
-54.74
-41.17
-28.21
-18.22
-12.33
-10.31
-11.07
-13.24
-15.74
-18.02
-20.04
-22.01
-24.22
-26.73
-29.29
-31.36
-32.33
-31.80
-29.88
-27.17
-24.52
-22.77
-22.37
-23.38
-25.49
-28.23
-30.97
-32.91
-33.02
-30.18
-23.56
-12.98
0.81
16.32
31.77
45.68
57.17
66.08
72.63
77.12
79.75
80.54
79.48
76.67
72.38
66.98
60.83
54.19
47.13
39.66
31.77
23.65
15.65
8.13
1.33
-4.88
-10.92
-17.28
-24.18
-31.25
-37.51
-41.58
-42.23
-38.82
-31.54
-21.33
-9.49
2.77
14.67
25.90
36.52
46.63
56.13
64.69
71.88
77.42
81.43
84.45
87.24
90.50
94.64
99.60
105.01
110.50
115.90
121.45
127.73
135.52
145.61
158.46
173.89
190.73
206.68
218.61
223.35
218.68
204.09
180.84
151.45
118.60
84.28
49.37
13.89
-22.58
-60.45
-99.92
-141.01
-183.46
-226.72
-269.67
-310.57
-347.01
-376.20
-395.45
-402.71
-397.13
-379.36
-351.55
-316.84
-278.61
-239.76
-202.19
-166.88
-134.16
-104.24
-77.50
-54.49
-35.65
-21.10
-10.24
-1.75
6.35
16.30
30.01
48.43
71.12
96.10
120.21
140.01
152.68
156.90
153.08
143.06
129.24
113.84
98.25
83.10
68.59
54.90
42.37
31.37
21.99
13.74
5.74
-2.92
-12.69
-23.34
-34.06
-43.83
-51.90
-58.10
-62.91
-67.28
-72.37
-79.09
-87.68
-97.46
-106.77
-113.33
-114.98
-110.34
-99.38
-83.29
-64.01
-43.50
-23.21
-3.95
13.73
29.25
41.77
50.44
54.82
55.15
52.40
47.86
42.62
37.29
32.00
26.68
21.40
16.57
12.87
11.03
11.48
14.20
18.61
23.69
28.19
30.89
30.90
27.79
21.72
13.46
4.34
-3.91
-9.41
-10.52
-6.31
3.15
16.76
32.77
49.28
64.74
78.12
88.79
96.25
100.10
100.11
96.57
90.41
83.02
75.81
69.65
64.66
60.24
55.47
49.56
42.16
33.48
24.15
14.89
6.21
-1.81
-9.62
-17.98
-27.65
-39.00
-51.71
-64.81
-76.84
-86.27
-91.90
-93.12
-89.98
-83.13
-73.56
-62.44
-50.84
-39.62
-29.38
-20.44
-13.01
-7.20
-3.10
-0.75
-0.06
-0.81
-2.68
-5.42
-8.84
-12.92
-17.60
-22.67
-27.68
-32.04
-35.21
-37.03
-37.85
-38.43
-39.76
-42.71
-47.89
-55.54
-65.51
-77.25
-89.63
-100.92
-108.87
-111.13
-105.88
-92.50
-71.85
-46.05
-17.97
9.65
34.69
55.86
72.47
84.14
90.63
91.93
88.53
81.58
72.75
63.75
55.84
49.41
44.06
38.89
32.91
25.50
16.56
6.55
-3.73
-13.32
-21.36
-27.39
-31.46
-34.20
-36.61
-39.85
-44.83
-51.79
-60.03
-67.91
-73.15
-73.47
-67.33
-54.50
-36.19
-14.60
7.73
28.68
46.97
62.10
74.23
83.77
91.28
97.28
102.18
106.19
109.10
110.43
109.49
105.71
98.79
88.83
76.31
61.97
46.81
31.92
18.43
7.26
-1.10
-6.72
-10.25
-12.76
-15.48
-19.54
-25.83
-34.74
-46.03
-58.58
-70.43
-78.99
-81.74
-77.00
-64.52
-45.73
-23.26
-0.18
20.88
38.28
51.42
60.48
65.92
68.17
67.55
64.36
59.07
52.50
45.64
39.50
34.69
31.23
28.52
25.59
21.49
15.69
8.27
-0.14
-8.70
-16.59
-23.36
-28.93
-33.58
-37.80
-42.20
-47.41
-53.85
-61.45
-69.42
-76.10
-79.32
-77.00
-67.95
-52.38
-31.95
-9.22
13.21
33.38
50.32
63.82
73.91
80.53
83.52
82.85
78.88
72.49
64.85
57.05
49.86
43.58
38.13
33.30
28.86
24.77
21.04
17.69
14.55
11.16
6.77
0.54
-8.21
-19.64
-33.30
-48.32
-63.68
-78.35
-91.24
-101.00
-106.02
-104.68
-96.06
-80.50
-59.82
-36.79
-14.25
5.76
22.32
35.47
45.54
52.67
56.68
57.37
54.91
50.05
44.02
38.08
33.20
29.71
27.30
25.26
22.76
19.30
14.81
9.72
4.75
0.59
-2.40
-4.34
-5.79
-7.58
-10.53
-15.11
-21.15
-27.75
-33.40
-36.32
-35.12
-29.23
-19.14
-6.18
7.97
21.83
34.39
45.08
53.59
59.64
62.95
63.47
61.49
57.65
52.81
47.72
42.89
38.48
34.36
30.19
25.59
20.32
14.38
8.08
1.94
-3.59
-8.32
-12.37
-16.09
-19.82
-23.80
-28.10
-32.59
-36.92
-40.41
-41.95
-40.24
-34.33
-24.19
-11.00
3.13
15.97
26.02
33.06
37.88
41.51
44.45
46.35
46.33
43.71
38.66
32.22
25.86
20.60
16.44
12.45
7.32
0.29
-8.38
-17.46
-25.39
-31.04
-34.16
-35.40
-35.78
-36.28
-37.49
-39.51
-41.94
-44.00
-44.62
-42.72
-37.59
-29.15
-18.09
-5.61
7.06
19.06
30.08
40.17
49.33
57.30
63.47
67.26
68.35
66.92
63.47
58.52
52.39
45.10
36.57
26.88
16.61
6.76
-1.54
-7.42
-10.68
-11.88
-12.09
-12.53
-14.20
-17.66
-23.01
-29.89
-37.49
-44.63
-49.92
-52.08
-50.25
-44.35
-35.05
-23.58
-11.37
0.30
10.50
18.68
24.61
28.32
30.04
30.12
28.95
26.85
24.06
20.77
17.12
13.30
9.37
5.36
1.22
-3.09
-7.52
-11.90
-16.07
-19.99
-23.83
-27.92
-32.67
-38.40
-45.17
-52.65
-60.00
-65.92
-68.93
-67.73
-61.77
-51.37
-37.70
-22.29
-6.51
8.74
22.99
35.91
47.04
55.63
60.91
62.42
60.22
54.91
47.41
38.63
29.33
20.09
11.37
3.64
-2.64
-7.15
-9.76
-10.62
-10.18
-9.12
-8.27
-8.57
-10.87
-15.82
-23.57
-33.61
-44.57
-54.43
-60.83
-61.82
-56.40
-44.90
-28.83
-10.35
8.46
26.13
41.83
55.22
66.06
73.97
78.55
79.62
77.53
73.10
67.49
61.73
56.49
51.90
47.65
43.24
38.25
32.58
26.48
20.52
15.27
11.12
8.07
5.74
3.46
0.45
-3.98
-10.31
-18.60
-28.39
-38.56
-47.52
-53.51
-55.13
-51.71
-43.53
-31.69
-17.79
-3.46
9.86
21.09
29.53
34.77
36.78
35.90
32.84
28.48
23.76
19.40
15.78
12.90
10.42
7.78
4.43
0.01
-5.46
-11.52
-17.42
-22.43
-26.22
-29.06
-31.86
-35.83
-41.93
-50.39
-60.40
-70.28
-77.98
-81.75
-80.75
-75.14
-65.94
-54.47
-41.93
-29.25
-17.12
-6.23
2.73
9.28
13.39
15.63
17.02
18.59
21.06
24.61
29.04
33.94
38.89
43.39
46.91
48.85
48.76
46.60
42.86
38.33
33.71
29.21
24.32
18.07
