1718011718.00
64.000000
-0.00
-0.00
-0.00
-0.00
-0.00
-0.00
-0.00
-0.00
-0.00
-0.00
0.00
0.01
0.01
-0.00
-0.03
-0.05
-0.05
0.00
0.13
0.36
0.66
1.01
1.37
1.72
2.06
2.40
2.79
3.24
3.80
4.42
5.06
5.66
6.20
6.68
7.15
7.68
8.31
9.14
10.09
11.04
11.88
12.56
13.14
13.76
14.65
15.96
17.91
20.32
22.90
25.38
27.58
29.57
31.68
34.32
37.81
42.54
48.15
54.10
59.83
64.97
69.58
74.14
79.34
85.71
93.76
103.00
112.62
121.73
129.77
136.75
143.30
150.75
157.77
166.64
177.95
191.79
206.97
220.57
228.25
225.36
208.53
176.87
132.76
80.05
23.07
-34.94
-92.44
-149.16
-205.23
-260.37
-313.74
-363.87
-409.83
-450.91
-486.50
-515.74
-537.23
-549.22
-549.96
-538.37
-514.21
-478.67
-433.88
-382.45
-327.02
-269.84
-212.63
-156.66
-102.95
-52.37
-5.90
35.58
71.43
101.35
125.50
144.38
158.69
169.15
176.37
180.75
182.57
182.07
179.51
175.23
169.65
163.18
156.15
148.81
141.30
133.69
126.02
118.33
110.69
103.16
95.80
88.68
81.83
75.25
68.95
62.95
57.25
51.86
46.78
42.03
37.59
33.45
29.61
26.07
22.81
19.83
17.11
14.67
12.48
10.54
8.83
7.35
6.07
4.97
4.05
3.27
2.62
2.09
1.65
1.30
1.01
0.79
0.61
0.47
0.37
0.29
0.23
0.19
0.17
0.16
0.16
0.17
0.19
0.21
0.25
0.28
0.32
0.36
0.41
0.45
0.51
0.58
0.65
0.72
0.76
0.78
0.75
0.70
0.66
0.64
0.68
0.76
0.88
1.01
1.12
1.19
1.26
1.34
1.48
1.70
2.00
2.33
2.65
2.92
3.10
3.25
3.43
3.74
4.22
4.87
5.58
6.21
6.63
6.81
6.83
6.88
7.18
7.85
8.87
10.04
11.06
11.64
11.69
11.35
10.95
10.83
11.18
11.86
12.38
12.09
10.41
7.10
2.32
-3.36
-9.32
-15.09
-20.43
-25.47
-30.50
-35.81
-41.75
-48.57
-56.34
-64.48
-71.52
-75.24
-73.31
-64.36
-48.88
-29.30
-9.25
7.88
20.03
27.04
30.06
30.72
30.23
29.15
27.63
25.76
23.88
22.37
21.49
21.15
20.99
20.58
19.58
17.99
16.00
13.98
12.22
10.81
9.60
8.32
6.61
4.28
1.40
-1.74
-4.69
-7.16
-9.00
-10.31
-11.26
-12.05
-12.84
-13.64
-14.30
-14.64
-14.57
-14.13
-13.38
-12.30
-10.84
-8.96
-6.50
-3.38
0.40
4.73
9.48
14.32
18.90
22.63
24.71
24.55
21.94
17.27
11.40
5.41
0.73
-1.41
-0.41
3.55
9.84
17.60
25.83
33.65
40.59
47.30
55.09
65.11
77.45
91.27
104.95
116.55
124.46
124.05
113.11
93.20
69.12
45.92
27.27
14.51
6.72
2.84
1.39
0.99
-0.05
-1.92
-5.33
-10.26
-15.79
-20.55
-23.30
-23.69
-21.80
-18.35
-14.40
-11.32
-10.05
-10.88
-13.59
-17.60
-22.38
-27.13
-31.13
-33.83
-35.16
-35.29
-34.55
-33.44
-32.44
-31.91
-31.81
-31.71
-31.13
-29.84
-27.96
-25.89
-24.18
-23.23
-23.25
-24.05
-25.28
-26.50
-27.38
-27.65
-27.13
-25.80
-23.91
-21.96
-20.63
-20.50
-21.82
-24.34
-27.31
-29.60
-30.04
-27.77
-22.49
-14.66
-5.35
4.06
12.22
18.23
21.80
23.15
22.87
21.57
19.75
17.71
15.60
13.51
11.54
9.80
8.46
7.61
7.25
7.30
7.60
8.02
8.51
9.02
9.48
9.79
9.85
9.60
9.12
8.61
8.25
8.13
8.20
8.32
8.43
8.54
8.79
9.28
10.04
10.98
11.89
12.51
12.58
11.86
10.27
8.02
5.70
4.22
4.49
7.10
12.02
18.56
25.52
31.65
35.90
37.70
36.91
33.80
28.89
22.86
16.51
10.59
5.74
2.30
0.24
-0.80
-1.51
-2.68
-5.05
-8.97
-14.32
-20.37
-26.08
-30.47
-33.04
-34.05
-34.46
-35.52
-38.25
-43.11
-49.88
-57.87
-66.26
-74.40
-81.81
-88.18
-93.29
-97.00
-99.30
-100.34
-100.36
-99.46
-97.45
-93.87
-88.13
-79.87
-69.30
-57.20
-44.78
-33.28
-23.61
-16.12
-10.68
-6.84
-4.12
-2.14
-0.61
0.68
1.92
3.33
5.02
6.96
8.94
10.70
12.02
12.84
13.26
13.44
13.53
13.55
13.39
12.92
12.04
10.75
9.15
7.35
5.45
3.50
1.52
-0.49
-2.54
-4.65
-6.84
-9.16
-11.73
-14.68
-18.15
-22.12
-26.24
-29.81
-31.89
-31.56
-28.37
-22.51
-14.83
-6.50
1.37
8.11
13.46
17.45
20.16
21.61
21.77
20.73
18.82
16.61
14.76
13.83
14.09
15.44
17.49
19.60
21.16
21.72
21.19
19.80
18.06
16.51
15.55
15.25
15.37
15.48
15.10
13.91
11.77
8.85
5.51
2.20
-0.67
-2.85
-4.34
-5.38
-6.37
-7.80
-10.08
-13.43
-17.69
-22.30
-26.32
-28.65
-28.34
-24.93
-18.67
-10.43
-1.54
6.69
13.29
17.88
20.60
21.86
22.19
21.91
21.22
20.14
18.65
16.91
15.17
13.84
13.25
13.47
14.26
15.19
15.80
15.84
15.30
14.37
13.23
11.97
10.50
8.69
6.45
3.84
1.06
-1.69
-4.31
-6.83
-9.33
-11.90
-14.55
-17.18
-19.72
-22.17
-24.77
-27.91
-31.83
-36.43
-40.97
-44.23
-44.86
-41.91
-35.27
-25.75
-14.77
-3.89
5.77
13.61
19.56
23.73
26.23
27.11
26.50
24.72
22.36
20.19
18.89
18.88
20.20
22.40
24.88
27.00
28.35
28.82
28.57
27.90
27.08
26.22
25.23
23.91
22.08
19.63
16.64
13.33
9.97
6.87
4.26
2.25
0.75
-0.51
-1.86
-3.70
-6.39
-10.18
-15.10
-20.85
-26.71
-31.56
-34.09
-33.22
-28.50
-20.34
-9.96
1.02
11.07
19.18
24.99
28.66
30.61
31.27
31.00
30.07
28.83
27.69
27.05
27.25
28.42
30.45
32.92
35.36
37.28
38.42
38.76
38.53
38.07
37.66
37.49
37.53
37.66
37.72
37.56
37.06
36.14
34.72
32.76
30.28
27.38
24.19
20.78
17.06
12.76
7.43
0.71
-7.58
-17.10
-26.95
-35.71
-41.80
-43.98
-41.70
-35.40
-26.25
-15.81
-5.52
3.59
10.98
16.50
20.23
22.43
23.38
23.35
22.52
20.87
18.34
14.94
10.98
7.06
3.89
2.00
1.45
1.90
2.80
3.73
4.53
5.30
6.13
6.92
7.33
6.99
5.67
3.51
0.96
-1.46
-3.38
-4.79
-5.95
-7.22
-8.93
-11.23
-14.15
-17.66
-21.74
-26.21
-30.67
-34.36
-36.28
-35.48
-31.44
-24.36
-15.16
-5.24
4.02
11.58
16.94
20.04
21.04
20.19
17.73
14.06
9.76
5.62
2.41
0.61
0.28
1.10
2.52
4.03
5.31
6.25
6.87
7.25
7.47
7.65
7.82
7.90
7.61
6.57
4.47
1.32
-2.46
-6.18
-9.17
-11.06
-11.92
-12.23
-12.56
-13.34
-14.83
-17.15
-20.34
-24.30
-28.62
-32.46
-34.66
-34.05
-29.96
-22.53
-12.75
-2.17
7.57
15.18
20.02
22.06
21.77
19.85
17.01
13.87
10.84
8.20
6.04
4.41
3.30
2.71
2.54
2.64
2.84
2.96
2.92
2.76
2.53
2.24
1.83
1.13
0.00
-1.61
-3.66
-5.94
-8.23
-10.31
-12.07
-13.49
-14.67
-15.79
-17.08
-18.74
-20.94
-23.79
-27.26
-31.13
-34.92
-37.85
-38.97
-37.49
-33.05
-25.95
-17.10
-7.74
0.93
8.08
13.30
16.62
18.27
18.58
17.86
16.38
14.44
12.38
10.60
9.50
9.30
10.06
11.46
12.99
14.09
14.38
13.81
12.64
11.26
9.95
8.76
7.58
6.24
4.70
3.11
1.72
0.74
0.18
-0.16
-0.64
-1.71
-3.65
-6.55
-10.28
-14.55
-19.00
-23.25
-26.87
-29.35
-30.17
-28.89
-25.39
-19.94
-13.18
-5.98
0.88
6.82
11.58
15.05
17.14
17.77
16.88
14.63
11.46
8.05
5.12
3.23
2.56
2.91
3.84
4.87
5.64
6.01
6.08
6.04
6.08
6.19
6.17
5.73
4.55
2.56
-0.07
-2.92
-5.52
-7.53
-8.85
-9.62
-10.13
-10.75
-11.84
-13.72
-16.56
-20.20
-24.08
-27.25
-28.67
-27.50
-23.56
-17.39
-10.04
-2.70
3.71
8.74
12.31
14.51
15.40
14.96
13.21
10.38
6.93
3.47
0.56
-1.38
-2.30
-2.32
-1.73
-0.82
0.17
1.11
1.87
2.38
2.60
2.48
2.03
1.26
0.19
-1.09
-2.49
-3.83
-5.00
-5.95
-6.73
-7.53
-8.58
-10.13
-12.30
-15.03
-17.98
-20.55
-22.00
-21.65
-19.12
-14.57
-8.65
-2.23
3.85
9.10
13.36
16.58
18.62
19.22
18.11
15.31
11.35
7.13
3.66
1.64
1.21
1.92
3.01
3.76
3.73
2.90
1.61
0.27
-0.79
-1.61
-2.53
-4.07
-6.60
-10.14
-14.25
-18.27
-21.50
-23.51
-24.21
-23.87
-22.99
-22.12
-21.80
-22.40
-23.95
-26.07
-27.96
-28.60
-27.02
-22.73
-15.90
-7.32
1.87
10.50
17.73
23.09
26.48
28.03
27.94
26.46
23.97
20.97
18.09
15.97
15.09
15.53
17.00
18.86
20.38
21.04
20.69
19.60
18.24
17.07
16.23
15.53
14.44
12.48
9.44
5.57
1.48
-2.13
-4.85
-6.72
-8.14
-9.61
-11.50
-13.89
-16.67
-19.61
-22.50
-25.04
-26.73
-26.93
-25.00
-20.59
-13.86
-5.54
3.30
11.55
18.34
23.18
25.97
26.86
26.22
24.54
22.33
20.12
18.33
17.25
16.98
17.48
18.50
19.64
20.47
20.63
19.99
18.74
17.21
15.74
14.46
13.26
11.89
10.19
8.18
6.06
4.06
2.29
0.70
-0.92
-2.71
-4.73
-6.94
-9.29
-11.86
-14.77
-18.05
-21.43
-24.32
-25.87
-25.31
-22.26
-16.91
-10.04
-2.68
4.12
9.68
13.76
16.50
18.18
19.03
19.18
18.58
17.26
15.36
13.17
11.10
9.59
8.90
9.02
9.73
10.55
11.00
10.69
9.55
7.76
5.69
3.73
2.05
0.55
-1.04
-3.02
-5.57
-8.63
-11.92
-15.06
-17.62
-19.34
-20.17
-20.24
-19.93
-19.75
-20.18
-21.48
-23.54
-25.80
-27.45
-27.62
-25.69
-21.51
-15.39
-8.02
-0.23
7.21
13.70
18.89
22.59
24.77
25.50
24.99
23.61
21.89
20.34
19.40
19.26
19.81
20.74
21.68
22.34
22.63
22.56
22.18
21.56
20.72
19.67
18.42
16.95
15.21
13.10
10.55
7.61
4.47
1.34
-1.58
-4.29
-6.96
-9.86
-13.20
-17.07
-21.43
-26.21
-31.30
-36.63
-41.99
-46.98
-50.96
-53.17
-52.93
-49.95
-44.41
-37.01
-28.74
-20.59
-13.26
-7.00
-1.71
2.91
7.09
10.94
14.47
17.73
20.94
24.41
28.34
32.56
36.39
38.89
39.30
37.43
33.90
29.84
26.40
24.19
23.06
22.29
21.10
19.16
16.67
14.23
12.34
11.11
10.14
8.76
6.49
3.36
-0.05
-2.92
-4.63
-5.11
-5.03
-5.39
-7.06
-10.28
-14.42
-18.23
-20.34
-19.79
-16.47
-11.14
-5.00
0.70
5.12
8.03
9.64
10.40
10.66
10.58
10.12
9.22
7.97
6.60
5.51
5.07
5.44
6.51
7.97
9.40
10.47
11.02
11.04
10.59
9.74
8.52
7.00
5.32
3.72
2.38
1.40
0.64
-0.16
-1.23
-2.61
-4.10
-5.41
-6.31
-6.76
-6.94
-7.10
-7.46
-8.18
-9.31
-10.87
-12.73
-14.54
-15.72
-15.57
-13.54
-9.51
-3.89
2.48
8.63
13.74
17.35
19.37
19.99
19.52
18.29
16.60
14.74
12.96
11.51
10.59
10.32
10.64
11.30
11.88
11.95
11.20
9.62
7.41
4.97
2.60
0.44
-1.52
-3.42
-5.37
-7.51
-9.91
-12.61
-15.59
-18.68
-21.60
-24.05
-25.92
-27.32
-28.63
-30.28
-32.60
-35.62
-39.16
-42.91
-46.47
-49.37
-51.04
-50.83
-48.23
-43.11
-35.93
-27.65
-19.42
-12.16
-6.27
-1.68
1.95
4.76
6.66
7.30
6.45
4.20
1.11
-2.03
-4.58
-6.30
-7.47
-8.73
-10.70
-13.78
-17.96
-22.95
-28.25
-33.31
-37.66
-41.02
-43.40
-45.31
-47.65
-51.47
-57.50
-65.62
-74.75
-83.02
-88.50
-89.77
-86.41
-78.98
-68.68
-56.92
-45.08
-34.47
-26.24
-21.20
-19.56
-20.62
-22.84
-24.28
-23.27
-19.05
-12.06
-3.65
4.46
10.84
14.73
16.15
15.65
14.00
11.91
9.83
8.00
6.45
5.17
4.21
3.73
3.87
4.70
6.13
7.94
9.91
11.97
14.18
16.71
19.57
22.46
24.77
25.76
24.91
22.18
18.04
13.24
8.54
4.42
1.03
-1.67
-3.78
-5.43
-6.81
-8.15
-9.69
-11.48
-13.25
-14.44
-14.44
-12.87
-9.67
-5.05
0.82
7.99
16.68
27.06
38.93
51.61
64.06
75.24
84.45
91.42
96.35
99.61
101.68
102.87
103.38
103.20
102.24
100.27
97.12
92.73
87.21
80.85
74.03
67.12
60.39
53.96
47.82
41.92
36.24
30.88
26.01
21.71
17.97
14.50
10.88
6.71
1.78
-3.83
-9.93
-16.30
-22.82
-29.38
-35.69
-41.11
-44.75
-45.77
-43.74
-38.89
-32.05
-24.37
-16.96
-10.63
-5.75
-2.40
-0.41
0.50
0.65
0.40
0.09
0.04
0.47
1.56
3.42
6.04
9.30
12.99
16.79
20.33
23.25
25.26
26.16
25.89
24.54
22.37
19.73
16.95
14.20
11.46
8.52
5.04
0.76
-4.45
-10.49
-17.07
-23.65
-29.51
-33.86
-36.01
-35.59
-32.73
-28.07
-22.56
-17.16
-12.59
-9.10
-6.55
-4.63
-3.07
-1.77
-0.86
-0.47
-0.70
-1.39
-2.31
-3.17
-3.86
-4.38
-4.90
-5.51
-6.29
-7.20
-8.29
-9.67
-11.48
-13.84
-16.69
-19.92
-23.36
-26.97
-30.74
-34.72
-38.86
-43.05
-47.17
-51.21
-55.27
-59.29
-62.91
-65.38
-65.78
-63.34
-57.81
-49.50
-39.17
-27.65
-15.61
-3.42
8.68
20.39
31.26
40.71
48.14
53.19
55.80
56.22
54.90
52.42
49.27
45.88
42.56
39.45
36.58
33.80
30.88
27.49
23.32
18.17
12.05
5.21
-1.89
-8.69
-14.76
-19.77
-23.59
-26.23
-27.81
-28.49
-28.46
-27.87
-26.72
-24.86
-21.96
-17.73
-12.03
-5.11
2.44
9.76
16.03
20.66
23.47
24.68
24.71
24.02
22.85
21.21
18.91
15.82
11.90
7.33
2.43
-2.45
-7.02
-11.06
-14.41
-17.01
-18.91
-20.13
-20.74
-20.68
-19.84
-18.03
-15.10
-11.04
-6.07
-0.53
5.16
10.64
15.66
19.94
23.24
25.26
25.76
24.65
22.04
18.29
13.89
9.46
5.61
2.86
1.49
1.47
2.43
3.86
5.28
6.37
7.07
7.47
7.65
7.58
7.06
5.87
3.87
1.17
-1.89
-4.94
-7.65
-9.95
-11.96
-13.96
-15.94
-17.60
-18.44
-18.14
-16.50
-13.74
-10.56
-7.96
-6.81
-7.30
-9.07
-11.38
-13.60
-15.06
-15.27
-13.99
-11.28
-7.40
-2.39
3.51
9.65
14.66
17.70
18.43
17.11
14.35
11.05
9.06
9.61
12.59
15.74
17.80
18.35
17.87
16.86
15.91
17.47
23.14
32.56
41.46
47.90
51.60
53.66
55.00
56.47
61.97
74.21
93.00
112.12
128.93
142.95
155.12
165.40
173.55
184.10
201.39
226.97
254.77
282.51
309.36
335.04
357.43
347.63
289.81
190.02
99.13
29.70
-19.00
-58.35
-92.06
-122.29
-150.06
-171.53
-184.04
-188.84
-194.99
-206.47
-222.95
-238.91
-249.32
-252.04
-245.01
-228.65
-205.86
-184.24
-168.37
-157.55
-149.38
-142.52
-135.98
-126.72
-112.60
-93.92
-74.82
-58.69
-47.48
-41.52
-40.80
-43.82
-47.00
-47.17
-43.17
-36.83
-29.78
-22.86
-16.52
-11.34
-7.56
-4.68
-2.12
0.47
2.69
4.21
5.11
5.54
5.39
4.49
2.85
0.85
-0.49
0.32
4.40
12.15
22.42
32.92
41.16
45.56
45.95
43.48
40.38
37.88
36.97
37.86
40.20
43.09
45.20
44.92
40.87
32.45
20.10
5.36
-9.90
-23.94
-35.56
-44.06
-49.14
-50.49
-47.89
-41.59
-32.39
-21.80
-11.54
-3.08
2.74
5.56
5.50
2.92
-1.82
-8.12
-15.06
-21.41
-25.98
-26.45
-22.30
-14.73
-6.30
-0.05
1.64
-2.13
-10.60
-21.66
-32.49
-40.45
-43.30
-39.60
-29.16
-13.22
5.67
24.26
39.65
50.17
55.64
57.27
56.82
55.65
54.16
51.86
47.95
41.98
34.21
25.34
16.29
7.63
-0.57
-8.62
-16.84
-25.28
-33.58
-41.15
-47.40
-51.66
-53.18
-51.02
-44.29
-32.68
-16.79
1.71
20.59
37.70
51.67
61.97
68.66
71.99
72.11
69.30
64.23
58.10
52.35
48.05
45.45
43.82
41.86
38.26
32.41
24.58
15.78
7.33
0.38
-4.42
-7.01
-7.79
-7.36
-6.33
-5.22
-4.41
-4.21
-4.90
-6.67
-9.68
-14.03
-19.83
-27.15
-35.76
-44.94
-53.19
-58.46
-58.73
-52.81
-41.01
-25.25
-8.46
6.37
17.12
23.05
24.54
22.57
18.17
12.19
5.37
-1.47
-7.38
-11.53
-13.54
-13.64
-12.62
-11.35
-10.45
-10.03
-9.66
-8.79
-7.04
-4.54
-1.84
0.26
0.99
-0.19
-3.45
-8.54
-14.69
-20.68
-25.07
-26.72
-25.46
-22.43
-19.87
-20.28
-25.15
-34.00
-44.28
-52.24
-54.32
-48.39
-34.50
-14.66
7.94
29.86
48.20
60.98
67.20
66.96
61.29
51.89
40.64
29.16
18.50
9.16
1.20
-5.74
-12.08
-18.16
-24.29
-30.82
-37.87
-45.26
-52.27
-57.80
-61.49
-63.36
-63.74
-63.12
-62.06
-60.60
-58.50
-55.15
-50.19
-45.33
-42.79
-43.97
-48.78
-55.79
-62.25
-65.58
-63.61
-55.41
-43.62
-31.59
-21.50
-14.05
-9.28
-6.66
-6.49
-8.70
-12.85
-20.84
-33.57
-49.59
-65.83
-79.53
-88.71
-93.92
-96.31
-81.56
-44.63
6.85
58.40
99.78
123.98
137.17
143.62
145.57
143.84
137.64
126.15
110.55
93.43
76.97
62.84
50.73
40.33
31.55
22.22
10.34
-4.57
-21.73
-40.02
-57.84
-74.41
-88.50
-98.62
-104.61
-106.55
-104.01
-96.54
-84.46
-68.76
-51.53
-34.61
-19.18
-6.38
3.17
9.47
12.83
13.57
12.28
9.63
6.74
4.92
4.90
6.73
9.90
13.60
17.03
19.66
21.17
21.47
20.63
18.89
16.85
15.55
16.41
20.77
29.31
41.61
56.01
70.13
81.55
88.56
90.56
87.93
81.74
73.31
63.91
54.62
46.20
38.99
32.88
27.43
22.10
16.49
10.48
4.10
-2.61
-9.77
-17.55
-25.95
-34.53
-42.32
-48.17
-51.15
-50.93
-47.90
-42.90
-37.07
-31.46
-26.84
-23.64
-21.80
-20.86
-20.08
-18.63
-15.93
-11.78
-6.24
0.45
8.02
16.12
24.14
31.14
35.92
37.39
34.96
28.77
19.52
8.23
-4.09
-16.58
-28.54
-39.35
-48.48
-55.69
-61.02
-64.82
-67.57
-69.80
-72.05
-74.91
-78.94
-84.58
-91.92
-100.47
-109.25
-117.06
-122.93
-126.46
-127.89
-127.82
-126.91
-125.51
-123.47
-120.01
-113.99
-104.07
-89.20
-68.92
-43.53
-14.21
17.16
48.38
77.57
103.53
125.93
145.08
161.54
176.10
189.15
200.39
209.11
214.74
217.32
217.51
216.37
214.80
214.07
214.68
215.98
216.44
214.60
209.59
201.40
190.44
177.14
163.08
149.36
136.00
121.97
106.21
87.97
67.33
44.87
21.54
0.48
-15.23
-23.70
-24.85
-19.48
-9.15
4.75
20.79
26.95
16.17
-9.95
-41.70
-68.70
-85.17
-90.82
-87.89
-79.83
-70.38
-61.07
-52.76
-46.48
-43.47
-42.05
-42.54
-43.59
-43.31
-40.70
-34.87
-26.78
-19.40
-18.64
-26.76
-43.02
-63.78
-84.51
-101.93
-113.69
-119.29
-119.77
-117.05
-112.46
-107.09
-102.72
-99.29
-97.36
-96.95
-97.36
-97.33
-95.45
-90.46
-81.78
-69.94
-56.69
-44.85
-36.51
-32.43
-32.14
-34.46
-37.94
-40.80
-41.10
-38.16
-32.81
-25.96
-18.14
-9.51
-0.12
9.87
21.27
34.95
51.36
69.99
90.58
112.90
136.36
159.71
174.36
173.96
158.81
135.89
113.31
96.17
85.35
78.93
74.24
69.38
64.65
61.10
60.52
60.39
58.44
53.58
45.90
36.19
25.65
15.79
7.42
-0.89
-11.88
-27.72
-48.54
-72.43
-96.37
-116.89
-131.35
-138.51
-140.08
-139.25
-138.72
-139.63
-142.21
-146.50
-152.31
-160.29
-163.49
-157.39
-140.98
-116.20
-85.24
-50.29
-16.56
15.84
45.69
71.94
93.45
110.65
122.52
129.47
131.90
129.95
124.28
115.33
104.46
92.69
81.16
70.89
62.99
57.86
55.26
54.86
55.55
56.23
55.30
51.44
43.94
33.24
20.45
7.11
-4.96
-14.69
-21.71
-26.83
-31.48
-37.12
-44.46
-53.32
-62.69
-71.05
-77.24
-80.76
-82.07
-82.26
-82.56
-83.89
-86.67
-90.78
-95.53
-99.88
-102.37
-101.42
-95.60
-84.01
-66.63
-44.45
-19.28
6.73
31.68
54.31
74.12
91.16
105.75
118.19
128.77
137.77
145.57
152.48
158.65
163.82
167.33
168.32
166.12
160.60
152.23
141.82
130.24
118.03
105.27
91.64
76.60
59.76
41.00
20.57
-0.88
-22.40
-42.84
-60.99
-75.80
-86.68
-93.60
-97.20
-98.59
-98.90
-98.87
-98.74
-98.33
-97.42
-96.07
-94.59
-93.30
-92.16
-90.57
-87.59
-82.49
-75.28
-66.88
-58.83
-52.47
-48.41
-46.22
-44.87
-43.37
-41.44
-39.57
-38.59
-38.95
-40.18
-40.90
-39.44
-34.69
-26.71
-16.76
-6.70
1.89
8.31
12.97
17.02
21.69
27.68
34.91
42.55
49.34
54.06
55.97
55.01
52.05
48.65
46.48
46.85
50.33
56.66
64.64
72.16
76.51
75.05
66.06
49.40
26.69
0.93
-24.67
-47.90
-68.06
-85.68
-101.15
-113.47
-120.27
-118.70
-106.66
-84.28
-54.46
-22.12
7.15
29.51
44.38
53.25
58.32
61.21
61.83
58.48
49.29
33.13
11.67
-10.08
-27.72
-39.29
-45.34
-48.46
-51.96
-57.95
-67.56
-79.42
-89.15
-94.32
-95.01
-92.30
-87.72
-83.10
-79.41
-78.08
-78.72
-77.65
-73.18
-65.88
-56.77
-47.10
-38.75
-22.66
4.02
26.13
41.10
53.22
62.70
68.40
69.05
63.27
51.27
33.49
12.35
-7.18
-22.86
-34.83
-43.14
-40.93
-24.84
1.46
28.13
47.84
60.65
69.32
76.56
83.57
88.67
88.00
77.66
56.05
26.62
-2.77
-24.73
-34.83
-32.47
-20.71
-5.15
10.09
20.58
24.20
21.10
13.05
4.42
0.39
2.27
8.69
17.75
27.13
35.39
42.24
47.98
52.84
56.51
58.09
56.85
52.66
46.11
38.74
32.15
27.35
24.28
21.80
18.39
13.19
6.22
-1.86
-9.81
-16.40
-20.87
-23.27
-24.46
-25.80
-28.41
-32.89
-39.23
-46.66
-53.88
-59.40
-61.98
-61.01
-56.67
-49.68
-41.13
-32.26
-24.03
-17.06
-11.49
-7.25
-4.24
-2.54
-2.31
-3.81
-7.07
-11.77
-17.10
-22.00
-25.50
-27.11
-26.93
-25.65
-24.14
-23.03
-22.48
-22.12
-21.33
-19.66
-17.11
-14.10
-11.25
-9.09
-7.82
-7.39
-7.61
-8.30
-9.18
-9.50
-7.86
-2.27
9.16
27.15
50.26
74.91
96.36
110.54
115.42
111.49
100.80
85.47
66.58
44.10
17.75
-11.84
-42.71
-72.01
-97.18
-116.93
-131.47
-141.86
-149.25
-154.24
-156.99
-157.70
-156.98
-155.94
-155.75
-156.91
-158.73
-159.15
-155.36
-144.96
-127.28
-104.06
-79.20
-57.46
-42.61
-35.99
-36.20
-39.85
-43.16
-43.40
-39.56
-32.21
-22.54
-11.51
0.71
14.77
31.61
51.85
75.45
101.55
128.72
155.50
180.68
203.41
223.21
239.83
253.26
263.65
270.96
274.34
271.79
260.43
238.02
204.76
164.61
124.71
92.97
74.90
71.34
78.61
90.72
102.34
110.82
116.27
119.91
122.35
122.67
119.13
110.54
97.31
81.61
66.38
53.83
44.41
36.69
28.14
16.54
1.23
-16.40
-33.39
-46.43
-53.28
-53.59
-48.84
-41.43
-33.62
-26.70
-20.91
-15.95
-11.70
-8.61
-7.64
-9.64
-14.59
-21.17
-26.99
-29.38
-26.47
-18.01
-5.44
8.83
22.51
34.21
43.57
50.67
55.15
55.74
50.50
37.70
16.94
-10.24
-40.67
-70.53
-96.79
-118.00
-134.60
-148.30
-161.12
-174.53
-188.89
-203.40
-216.04
-223.86
-223.41
-211.52
-186.54
-149.31
-103.55
-55.15
-10.45
25.64
50.93
66.09
73.73
77.14
79.15
81.55
84.99
89.21
93.27
95.99
96.38
94.25
90.42
86.60
84.71
86.07
90.71
97.15
102.69
103.93
97.72
82.13
57.34
26.21
-6.02
-32.99
-49.19
-52.00
-42.85
-26.71
-10.23
0.87
3.82
-0.56
-8.82
-16.81
-21.41
-21.36
-17.05
-9.65
-0.35
9.84
19.89
28.54
34.51
37.09
36.60
34.34
31.99
30.65
30.31
29.85
27.58
21.92
11.98
-2.19
-19.42
-37.34
-52.57
-61.21
-60.09
-48.08
-26.92
-0.90
24.63
45.25
58.90
65.91
68.02
66.94
63.50
57.73
49.55
39.37
28.16
16.90
6.03
-4.58
-15.22
-25.72
-35.38
-43.45
-49.83
-55.42
-61.73
-69.95
-80.19
-91.40
-101.95
-110.43
-116.02
-118.42
-117.64
-114.32
-110.09
-107.72
-110.33
-119.60
-134.27
-149.77
-159.71
-158.57
-143.94
-117.30
-82.85
-45.58
-9.69
21.76
46.32
61.49
65.07
56.01
35.52
7.41
-22.68
-48.72
-65.92
-71.78
-66.50
-52.57
-33.90
-14.55
2.29
14.88
23.02
27.40
28.91
28.26
25.86
22.15
17.85
13.93
11.30
10.39
10.87
11.95
12.76
12.95
12.86
13.40
15.56
19.85
26.22
34.17
43.07
52.35
61.41
69.48
75.64
79.08
79.64
78.12
76.13
75.49
77.38
81.84
87.88
94.19
99.89
104.95
110.15
116.52
124.80
135.07
146.53
157.57
165.76
168.16
161.74
144.29
115.42
77.33
34.73
-6.44
-41.06
-66.79
-84.95
-99.87
-116.69
-138.82
-166.09
-194.60
-218.36
-231.86
-232.43
-221.14
-202.03
-180.05
-159.00
-140.35
-123.41
-106.53
-88.40
-68.92
-49.06
-30.20
-13.41
0.77
12.09
20.18
24.45
24.35
19.97
12.34
3.38
-4.74
-10.37
-12.95
-13.07
-12.02
-11.05
-10.85
-11.23
-11.37
-10.29
-7.48
-3.27
1.15
4.05
3.77
-0.69
-9.45
-21.67
-35.85
-50.14
-62.75
-72.15
-77.42
-78.35
-75.56
-70.34
-64.26
-58.64
-54.14
-50.59
-47.15
-42.75
-36.38
-27.31
-15.06
0.63
19.78
41.98
66.30
91.12
114.21
133.07
145.43
149.61
144.84
131.33
110.38
84.36
56.36
29.68
7.06
-9.91
-21.20
-28.19
-33.21
-38.60
-45.74
-54.59
-63.70
-70.66
-72.79
-68.14
-56.36
-39.16
-19.98
-2.72
9.01
12.89
8.80
-0.92
-12.29
-21.19
-24.92
-22.90
-15.60
-4.69
7.56
19.23
29.51
38.69
47.62
57.23
68.26
82.30
99.68
118.52
135.27
146.58
150.84
148.41
141.29
132.22
125.47
123.98
128.19
136.55
146.94
157.47
166.14
171.09
159.83
127.46
80.96
34.67
-0.98
-24.19
-38.50
-48.52
-56.76
-63.20
-65.54
-62.41
-55.55
-48.37
-44.12
-44.08
-48.01
-54.22
-60.79
-66.01
-68.99
-69.99
-70.24
-71.67
-73.38
-76.07
-80.71
-88.04
-98.45
-110.89
-123.40
-134.16
-142.07
-146.43
-146.99
-142.94
-125.06
-91.19
-47.68
-5.26
27.91
48.85
58.80
60.32
56.03
47.79
35.62
20.37
4.35
-9.44
-19.75
-25.74
-27.83
-26.78
-23.10
-17.95
-11.68
-4.07
4.87
14.35
23.24
30.36
35.28
38.34
39.16
37.87
35.18
32.01
29.05
26.75
25.10
23.77
22.21
19.54
15.39
10.03
4.23
-1.13
-5.32
-8.05
-9.29
-9.24
-8.30
-6.80
-5.01
-3.21
-1.70
-0.71
-0.45
-1.03
-2.46
-4.65
-7.37
-10.31
-13.08
-15.37
-16.99
-17.97
-18.53
-18.99
-19.66
-20.66
-21.94
-23.19
-24.04
-24.03
-22.79
-20.16
-16.24
-11.36
-6.01
-0.74
4.01
7.94
10.95
13.09
14.47
15.14
15.14
14.50
13.37
12.04
10.82
10.01
9.69
9.73
9.89
10.00
10.02
10.04
10.18
10.40
10.55
10.40
9.79
8.75
7.47
6.22
5.23
4.59
4.24
4.00
3.60
2.82
1.51
-0.33
-2.50
-4.74
-6.82
-8.62
-10.15
-11.45
-12.49
-13.06
-12.80
-11.38
-8.63
-4.67
0.07
4.99
9.53
13.29
16.08
17.92
18.89
19.08
18.53
17.31
15.56
13.54
11.59
10.05
9.13
8.77
8.76
8.76
8.50
7.84
6.85
5.66
4.44
3.29
2.20
1.10
-0.10
-1.51
-3.20
-5.23
-7.58
-10.10
-12.54
-14.62
-16.22
-17.42
-18.58
-20.13
-22.49
-25.79
-29.83
-34.14
-37.98
-40.53
-41.06
-39.09
-34.61
-28.20
-20.91
-13.99
-8.42
-4.61
-2.35
-1.00
0.12
1.41
2.89
4.37
5.62
6.57
7.33
8.08
8.98
10.12
11.55
13.28
15.32
17.64
20.09
22.43
24.30
25.31
25.16
23.68
20.98
17.42
13.54
9.88
6.76
4.13
1.60
-1.38
-5.29
-10.27
-16.04
-21.92
-27.01
-30.44
-31.63
-30.38
-26.90
-21.73
-15.54
-9.05
-2.87
2.53
6.86
9.90
11.56
11.83
10.79
8.63
5.61
2.07
-1.69
-5.37
-8.79
-11.85
-14.52
-16.83
-18.84
-20.71
-22.65
-24.94
-27.85
-31.50
-35.76
-40.20
-44.12
-46.74
-47.47
-46.10
-42.88
-38.38
-33.05
-27.30
-21.62
-16.49
-12.33
-9.28
-7.17
-5.31
-2.73
1.80
9.01
18.72
29.80
40.71
49.97
56.54
60.01
60.28
58.02
53.79
47.77
39.87
30.24
19.45
8.28
-2.41
-12.01
-18.76
-21.63
-21.08
-18.83
-16.52
-14.90
-14.23
-13.89
-13.45
-9.56
0.00
14.56
30.93
46.00
58.35
67.64
75.37
82.86
95.86
118.06
148.23
180.92
210.61
234.63
252.05
264.95
275.26
290.89
317.41
354.63
397.01
438.62
476.35
508.28
535.43
516.90
431.20
291.55
137.89
4.53
-96.19
-161.01
-207.44
-245.64
-280.03
-305.37
-316.60
-311.92
-294.56
-270.37
-244.46
-221.98
-204.54
-192.93
-182.73
-169.96
-154.19
-138.18
-126.19
-120.42
-121.93
-128.10
-135.98
-140.80
-139.08
-130.42
-116.56
-101.70
-89.72
-84.32
-86.12
-87.18
-80.20
-62.03
-43.22
-28.50
-22.77
-26.01
-38.96
-59.12
-81.34
-99.52
-107.77
-102.30
-81.38
-47.73
-6.81
34.34
69.90
95.90
109.94
112.04
104.19
90.73
75.52
61.76
51.42
45.69
44.70
46.89
49.86
50.66
47.69
40.07
27.87
11.71
-7.26
-27.65
-48.34
-68.30
-87.30
-104.59
-119.50
-131.83
-141.83
-149.24
-152.72
-150.15
-139.77
-122.70
-101.51
-79.58
-60.49
-46.94
-39.81
-38.24
-40.23
-44.29
-51.39
-61.78
-73.58
-83.48
-87.84
-83.87
-70.45
-48.10
-10.56
36.88
80.30
107.28
114.42
106.36
90.31
71.65
54.16
40.26
29.74
22.40
21.23
28.04
42.84
65.19
89.56
107.72
113.17
104.58
87.97
73.93
71.26
82.37
102.19
120.59
129.14
123.85
105.44
79.07
52.29
30.96
17.12
8.92
2.30
-6.10
-17.87
-30.38
-41.29
-48.45
-50.92
-48.90
-43.29
-35.20
-25.50
-15.35
-6.61
-1.99
-3.66
-12.47
-27.15
-44.45
-60.14
-70.32
-72.91
-68.36
-59.75
-51.06
-45.76
-45.38
-49.19
-54.64
-58.63
-58.87
-54.82
-47.83
-40.04
-33.21
-27.92
-23.43
-18.24
-11.21
-2.24
7.58
16.24
21.88
23.46
21.02
15.69
9.63
6.05
8.87
21.71
45.92
79.03
114.38
142.64
154.95
146.16
116.67
71.97
20.16
-30.99
-76.05
-112.41
-139.40
-157.26
-166.65
-168.68
-165.25
-158.98
-152.52
-147.76
-145.47
-145.41
-146.53
-147.64
-147.61
-145.46
-140.44
-132.09
-120.58
-106.89
-92.67
-79.44
-67.63
-56.03
-42.06
-23.17
1.44
29.86
57.93
81.00
95.95
102.27
101.62
96.32
87.95
76.94
63.24
47.48
31.56
18.02
8.79
4.16
2.65
1.98
0.37
-2.55
-5.79
-7.70
-6.91
-2.91
3.80
11.96
19.88
25.75
28.14
26.47
21.42
15.11
10.58
10.90
18.12
32.46
52.37
75.05
97.47
117.35
133.68
146.93
158.81
171.62
187.38
207.07
230.21
254.78
277.50
294.37
301.20
294.51
272.26
234.76
185.07
128.74
72.70
23.42
-14.96
-41.60
-58.76
-70.34
-80.17
-90.75
-102.85
-115.86
-128.45
-139.04
-146.10
-148.36
-145.02
-135.94
-121.81
-104.15
-85.07
-66.82
-51.17
-39.16
-30.87
-25.65
-22.43
-20.15
-17.98
-15.37
-11.93
-7.41
-1.92
3.83
8.51
10.58
8.89
3.34
-5.04
-14.49
-23.35
-30.46
-35.29
-37.52
-36.67
-32.06
-23.28
-10.77
4.06
19.09
32.36
42.82
50.61
56.73
62.28
67.66
72.17
74.23
72.11
64.74
52.31
36.26
18.72
1.79
-13.06
-25.08
-33.96
-39.45
-41.21
-38.92
-32.67
-23.14
-11.65
0.13
10.59
18.50
23.16
24.41
22.53
18.20
12.44
6.44
1.34
-2.14
-3.89
-4.39
-4.41
-4.54
-4.91
-5.19
-4.95
-4.08
-2.98
-2.41
-2.97
-4.75
-7.15
-9.20
-10.15
-9.77
-8.53
-7.18
-6.37
-6.30
-6.69
-6.99
-6.72
-5.69
-4.00
-1.96
0.01
1.48
2.10
1.59
-0.23
-3.34
-7.54
-12.41
-17.35
-21.65
-24.53
-25.40
-23.94
-20.34
-15.24
-9.67
-4.69
-1.05
0.93
1.41
0.90
0.11
-0.26
0.40
2.42
5.81
10.15
14.80
19.09
22.57
25.14
26.94
28.21
29.04
29.31
28.81
27.42
25.15
22.26
19.08
15.97
13.20
10.90
8.97
6.83
3.49
-2.32
-11.57
-24.39
-39.61
-54.91
-67.69
-76.11
-80.06
-81.22
-82.39
-86.19
-93.87
-104.68
-116.01
-124.06
-124.91
-115.54
-94.73
-63.43
-24.77
16.75
56.24
89.70
114.75
130.88
139.22
141.92
141.61
140.80
141.28
143.36
145.72
145.82
141.20
130.82
115.77
98.60
81.82
66.44
51.59
35.43
16.84
-3.57
-23.43
-39.91
-51.17
-57.31
-59.98
-61.35
-63.00
-65.41
-68.18
-70.60
-72.11
-72.42
-71.26
-68.14
-62.37
-53.35
-40.98
-26.09
-10.42
3.74
14.31
20.08
21.04
18.20
13.04
6.97
0.98
-4.34
-8.64
-11.80
-13.93
-15.66
-18.00
-22.04
-28.41
-36.90
-46.35
-54.98
-61.02
-63.22
-61.27
-55.78
-48.07
-39.75
-32.19
-26.17
-21.69
-18.11
-14.59
-10.53
-5.85
-1.08
3.09
6.14
8.09
9.44
10.91
13.10
16.34
20.61
25.76
31.53
37.57
43.30
47.93
50.71
51.30
50.24
49.14
50.25
55.59
65.87
79.91
94.77
106.86
113.38
113.35
107.83
99.10
89.54
80.62
72.68
65.28
57.71
49.40
39.80
28.28
14.08
-3.26
-23.43
-45.09
-66.15
-84.40
-98.25
-107.23
-111.94
-113.58
-113.34
-112.06
-109.98
-106.92
-102.48
-96.30
-88.09
-77.81
-65.60
-51.84
-37.15
-22.28
-7.93
5.43
17.55
28.37
37.78
45.47
51.09
54.40
55.61
55.43
54.86
54.78
55.50
56.71
57.67
57.75
56.91
55.89
56.03
58.73
64.85
74.33
86.10
98.45
109.68
118.76
125.58
130.81
135.32
139.38
142.39
142.94
139.31
130.15
114.97
94.29
69.51
42.62
15.79
-8.97
-30.12
-46.79
-58.88
-67.00
-72.28
-76.13
-79.96
-85.03
-92.22
-101.71
-112.76
-123.64
-132.00
-135.60
-133.18
-124.95
-112.57
-98.48
-84.93
-73.41
-64.43
-57.87
-53.47
-51.13
-50.83
-52.38
-55.21
-58.50
-61.50
-63.83
-65.57
-66.94
-68.05
-68.62
-68.19
-66.54
-64.06
-61.78
-61.11
-63.30
-69.01
-78.05
-89.48
-101.77
-113.05
-121.41
-125.27
-123.81
-117.42
-107.93
-98.51
-93.05
-95.15
-106.93
-127.99
-154.86
-181.33
-199.93
-204.11
-190.51
-160.10
-117.67
-69.90
-22.94
19.30
55.37
85.35
109.55
127.85
139.78
145.29
145.31
141.67
136.39
130.81
125.04
118.19
109.01
96.53
80.65
62.21
42.72
23.98
7.59
-5.43
-14.83
-21.04
-25.03
-27.99
-31.19
-35.71
-42.36
-51.40
-62.40
-74.07
-84.28
-90.43
-90.15
-82.22
-67.17
-47.39
-26.54
-8.44
4.11
10.07
10.28
6.94
2.91
1.07
3.85
12.74
27.87
47.64
69.02
88.26
102.21
109.45
110.75
108.55
105.80
104.71
106.00
108.91
111.77
112.79
110.76
105.17
96.23
84.64
71.27
56.92
42.02
26.55
10.06
-7.92
-27.61
-48.52
-69.37
-88.13
-102.48
-110.37
-110.71
-103.64
-90.67
-74.27
-57.23
-41.94
-29.81
-21.14
-15.28
-11.10
-7.41
-3.47
0.83
4.87
7.37
6.93
2.72
-4.71
-13.14
-19.13
-19.50
-12.92
-0.96
12.22
21.61
23.55
17.27
5.12
-8.71
-20.13
-26.56
-27.36
-23.30
-15.72
-6.07
4.04
12.76
18.21
19.33
16.70
12.83
11.42
15.87
27.64
45.58
66.36
85.92
101.03
110.25
113.71
112.43
107.52
99.88
90.49
80.54
71.39
64.07
58.68
54.34
49.53
42.90
33.96
23.39
12.89
4.54
0.15
0.55
5.20
12.31
19.34
24.04
25.24
23.32
19.78
16.47
14.49
13.76
13.14
11.15
6.86
0.44
-6.79
-12.94
-16.34
-16.34
-13.70
-10.29
-8.23
-8.83
-11.76
-15.00
-15.79
-11.91
-2.96
9.35
21.98
31.94
37.67
39.74
40.32
41.98
46.23
52.59
58.67
61.18
57.43
46.58
30.03
10.73
-8.22
-24.97
-39.47
-53.05
-67.23
-82.52
-97.87
-111.05
-119.64
-121.93
-117.39
-106.55
-90.58
-70.97
-49.52
-28.28
-9.49
4.94
14.05
18.12
18.55
17.11
15.03
12.42
8.29
1.26
-9.57
-23.91
-40.13
-55.80
-68.64
-77.41
-82.26
-84.62
-86.44
-89.42
-94.48
-101.69
-110.53
-120.25
-130.16
-139.64
-148.08
-154.77
-159.07
-160.50
-159.07
-155.40
-150.79
-146.90
-145.18
-146.22
-149.23
-152.10
-152.13
-147.03
-135.88
-119.45
-99.80
-79.35
-60.06
-42.97
-28.38
-16.07
-5.59
3.64
12.23
20.66
28.96
36.48
42.05
44.28
42.24
35.97
26.92
17.96
12.97
16.05
30.26
56.45
92.48
133.21
171.52
200.13
213.62
210.00
191.30
163.09
133.09
109.15
97.29
100.21
116.83
142.97
172.72
200.16
220.54
231.02
230.72
220.59
203.05
181.58
160.04
141.78
128.75
120.92
116.38
112.12
105.21
93.94
78.36
60.09
41.65
25.36
12.62
3.42
-3.38
-9.47
-16.23
-24.22
-32.94
-41.13
-47.57
-51.71
-54.21
-56.90
-62.15
-71.94
-86.99
-106.25
-127.02
-145.59
-157.97
-160.69
-151.40
-129.33
-95.52
-52.81
-5.39
42.11
85.75
123.19
154.01
179.20
200.29
218.37
233.84
246.57
256.57
264.28
270.23
274.42
275.83
272.81
264.28
250.94
235.63
222.22
213.51
209.21
205.44
196.16
175.91
142.29
96.87
44.24
-9.98
-60.95
-105.29
-140.81
-166.01
-179.94
-182.81
-176.49
-164.49
-151.14
-140.12
-133.36
-130.69
-130.51
-130.88
-130.58
-129.44
-128.06
-127.12
-126.82
-126.69
-125.92
-123.97
-120.99
-117.86
-115.77
-115.62
-117.69
-121.59
-126.53
-131.78
-136.86
-141.59
-145.88
-149.67
-152.90
-155.60
-157.98
-160.42
-163.27
-166.64
-170.24
-173.51
-175.70
-176.10
-174.14
-169.35
-161.32
-149.77
-134.72
-116.70
-96.83
-76.62
-57.58
-40.67
-26.04
-13.07
-0.83
11.39
23.79
36.05
47.63
58.11
67.43
75.81
83.52
90.66
97.10
102.52
106.60
109.18
110.37
110.59
110.47
110.68
111.63
113.38
115.54
117.39
118.13
117.16
114.29
109.79
104.23
98.31
92.53
87.13
82.00
76.85
71.27
64.97
57.82
50.04
42.09
34.65
28.34
23.53
20.17
17.81
15.78
13.43
10.42
6.82
3.13
0.06
-1.82
-2.21
-1.32
0.30
1.93
3.02
3.36
3.10
2.66
2.41
2.51
2.84
3.06
2.86
1.96
0.25
-2.34
-5.86
-10.34
-15.70
-21.81
-28.47
-35.45
-42.47
-49.13
-54.83
-58.72
-59.88
-57.65
-51.95
-43.59
-34.13
-25.49
-19.22
-15.95
-15.10
-15.16
-14.34
-11.30
-5.64
2.07
10.68
19.10
26.57
32.77
37.55
40.64
41.62
40.02
35.68
28.89
20.39
11.12
1.95
-6.54
-14.00
-20.27
-25.19
-28.68
-30.83
-32.01
-32.88
-34.30
-37.10
-41.77
-48.32
-56.22
-64.51
-72.08
-78.00
-81.71
-83.07
-82.24
-79.44
-74.78
-68.16
-59.47
-48.74
-36.47
-23.76
-12.31
-4.19
-1.43
-5.40
-16.20
-32.27
-50.54
-67.28
-79.08
-83.93
-81.57
-73.36
-61.62
-49.00
-38.05
-30.91
-29.23
-33.84
-44.36
-58.93
-74.40
-87.01
-93.46
-91.66
-80.96
-61.64
-34.34
0.10
40.17
83.08
124.61
159.80
184.61
197.38
199.49
194.78
187.77
181.92
178.64
177.45
176.98
176.03
174.07
171.01
166.67
160.54
151.87
140.36
126.73
112.91
101.61
95.28
95.12
100.30
108.05
114.44
115.65
109.30
95.29
75.82
54.72
36.12
23.18
16.96
16.22
17.80
17.92
13.57
3.88
-9.37
-22.11
-29.25
-26.45
-11.99
12.20
40.65
65.83
80.55
80.28
64.57
36.78
2.50
-32.61
-64.57
-91.68
-114.01
-132.35
-147.27
-158.83
-167.00
-172.02
-174.60
-175.36
-174.43
-171.33
-165.38
-156.35
-144.61
-130.98
-116.20
-100.62
-84.29
-67.37
-50.81
-36.45
-26.76
-23.89
-28.78
-40.51
-56.40
-72.84
-86.68
-96.40
-102.51
-106.94
-111.51
-116.35
-119.03
-115.15
-100.05
-70.82
-27.75
25.58
83.22
138.35
184.67
217.52
234.69
236.74
226.65
209.07
188.95
170.27
155.04
142.99
132.52
121.95
110.38
97.80
84.80
72.08
60.25
49.70
39.98
30.35
20.25
9.34
-2.64
-16.03
-30.82
-46.35
-61.31
-75.31
-88.43
-100.90
-112.65
-123.28
-132.18
-138.37
-140.56
-137.45
-129.59
-118.47
-106.04
-94.37
-86.03
-84.05
-90.73
-106.41
-120.57
-121.88
-104.34
-71.50
-31.70
7.76
42.58
70.90
91.90
105.89
110.52
103.85
86.82
64.39
43.57
30.22
28.10
36.57
51.21
65.21
73.39
74.36
70.56
66.07
64.17
66.33
72.26
80.72
89.35
95.56
96.94
91.87
80.07
62.98
43.86
26.87
15.55
10.76
10.20
8.98
1.65
-15.51
-42.85
-76.97
-112.14
-142.71
-165.26
-179.38
-186.93
-190.34
-191.30
-190.19
-186.68
-180.47
-171.80
-161.20
-148.97
-134.86
-118.42
-99.60
-79.13
-58.68
-40.16
-25.08
-13.87
-5.64
1.51
9.78
20.93
35.50
52.64
70.31
86.02
97.69
104.29
106.01
104.01
99.98
95.73
92.86
92.64
95.70
101.85
110.02
118.45
125.19
128.69
128.20
124.07
117.63
110.81
105.37
102.13
100.51
98.48
93.26
82.33
64.28
39.31
8.93
-24.55
-58.65
-91.09
-119.99
-143.97
-162.37
-175.31
-183.59
-188.22
-190.01
-189.28
-186.07
-180.49
-172.95
-164.30
-155.61
-147.91
-142.05
-138.64
-138.03
-140.08
-143.96
-148.02
-150.14
-148.47
-142.04
-131.10
-116.88
-100.90
-84.18
-66.81
-47.98
-26.75
-2.95
22.56
48.16
72.22
93.88
113.28
131.37
149.43
167.91
185.93
201.75
213.74
221.27
224.80
225.29
223.45
219.71
213.25
202.53
186.43
165.50
142.00
118.45
95.98
73.82
50.80
25.44
-2.76
-32.29
-59.62
-80.24
-91.22
-92.56
-86.43
-74.82
-59.99
-44.50
-31.01
-21.70
-17.43
-18.60
-25.21
-43.55
-73.41
-107.05
-134.03
-148.60
-151.47
-146.02
-134.52
-119.62
-102.53
-82.35
-58.51
-31.46
-1.70
25.11
47.05
64.13
77.69
90.01
104.07
120.92
138.73
153.30
159.97
156.29
141.91
118.53
89.72
60.33
34.49
14.54
0.90
-7.29
-10.82
-10.89
-8.91
-6.14
-3.30
-1.02
0.04
-0.74
-3.68
-8.14
-13.16
-17.95
-22.18
-26.11
-30.59
-36.51
-44.23
-53.19
-61.80
-68.27
-71.25
-70.23
-65.50
-58.03
-48.98
-39.51
-30.52
-22.62
-16.07
-10.90
-7.00
-4.22
-2.39
-1.36
-0.85
-0.46
0.35
2.01
4.54
7.40
9.68
10.52
9.85
8.89
10.15
16.78
31.45
55.25
87.13
123.91
160.81
192.45
214.09
222.79
218.48
204.34
186.36
171.65
166.10
172.17
187.85
207.48
224.04
231.74
227.96
213.46
191.31
165.21
138.10
111.52
85.63
59.51
31.81
1.51
-31.43
-65.78
-99.30
-129.68
-155.77
-178.18
-199.03
-220.55
-243.51
-266.30
-285.18
-295.81
-295.08
-282.40
-259.77
-230.92
-199.79
-169.43
-141.49
-116.39
-93.93
-73.99
-56.69
-42.20
-30.12
-19.23
-7.62
6.53
24.04
44.06
64.13
81.02
91.86
95.14
91.07
81.23
67.75
52.62
37.51
23.99
13.73
8.45
9.25
15.94
26.59
37.81
45.69
47.14
40.94
28.08
11.23
-6.36
-21.97
-34.11
-42.61
-48.21
-51.94
-54.63
-56.62
-57.80
-57.79
-56.22
-52.99
-48.21
-42.16
-35.12
-27.19
-18.42
-8.85
1.18
11.15
20.49
29.00
36.93
44.78
52.75
60.15
65.59
67.74
66.25
62.35
58.29
56.10
56.39
57.85
58.00
54.64
47.16
36.85
26.10
16.98
10.22
5.16
0.53
-4.44
-9.45
-13.39
-15.25
-15.02
-13.99
-14.16
-17.17
-23.36
-31.44
-39.12
-44.09
-45.02
-41.60
-34.27
-23.43
-9.11
8.75
29.72
52.35
74.29
93.01
106.73
114.95
118.34
117.98
114.71
108.84
100.29
89.08
75.57
60.48
44.57
28.38
12.20
-3.68
-18.76
-32.16
-42.74
-49.25
-50.65
-46.35
-36.51
-22.34
-6.16
8.97
20.01
25.07
24.09
18.93
12.62
8.17
7.45
10.76
17.06
24.76
32.42
39.07
44.08
46.86
46.63
42.60
34.31
21.98
6.66
-10.01
-26.38
-41.28
-54.28
-65.67
-76.11
-86.27
-96.47
-106.57
-115.98
-123.69
-128.44
-128.98
-124.42
-114.69
-100.74
-84.52
-68.44
-54.66
-44.56
-38.38
-35.52
-34.95
-35.62
-36.63
-37.25
-36.87
-35.08
-31.84
-27.61
-23.17
-19.43
-17.01
-16.04
-16.16
-16.74
-17.25
-17.38
-17.21
-17.02
-17.16
-17.96
-19.62
-22.31
-26.17
-31.20
-37.21
-43.65
-49.66
-54.30
-56.88
-57.18
-55.60
-52.88
-49.76
-46.61
-43.38
-39.73
-35.41
-30.41
-25.07
-19.92
-15.52
-12.20
-10.02
-8.61
-7.30
-5.17
-1.29
5.00
13.76
24.32
35.38
45.52
53.62
59.14
62.09
62.79
61.61
58.74
54.21
48.05
40.52
32.35
24.81
19.65
18.64
23.04
32.97
47.28
63.81
80.05
93.89
104.12
110.51
113.49
113.60
111.05
105.54
96.34
82.77
64.70
42.99
19.46
-3.50
-23.77
-40.17
-52.71
-62.19
-69.56
-75.36
-79.68
-82.73
-85.30
-88.85
-94.84
-103.85
-114.90
-125.68
-133.48
-136.47
-134.52
-129.33
-123.55
-119.58
-118.45
-119.42
-120.37
-118.87
-113.47
-104.56
-94.52
-86.83
-84.66
-89.45
-100.18
-113.49
-124.64
-128.88
-122.91
-105.88
-79.85
-49.58
-21.41
-1.58
5.83
0.73
-12.23
-24.77
-27.90
-15.58
12.43
50.24
88.27
117.26
131.78
131.47
119.34
98.95
72.18
39.52
2.46
-33.74
-59.48
-63.61
-38.57
14.72
85.18
154.71
204.27
220.36
198.82
144.84
70.03
-11.63
-87.14
-146.52
-183.88
-197.82
-191.41
-171.38
-146.03
-122.64
-105.07
-92.78
-81.58
-65.90
-41.48
-7.17
34.52
78.29
117.75
147.11
162.49
162.62
149.06
125.71
98.23
72.91
55.45
49.67
56.38
72.77
93.18
111.12
121.67
122.96
116.02
103.28
86.85
67.52
44.37
16.55
-14.74
-45.03
-67.72
-76.75
-69.43
-47.79
-17.67
12.56
35.26
45.96
44.35
32.92
15.25
-4.84
-22.89
-33.52
-33.11
-20.86
0.34
24.60
44.49
53.46
48.19
29.14
2.56
-23.90
-45.84
-64.75
-83.07
-99.07
-107.15
-101.60
-84.80
-58.00
-26.93
0.71
18.99
26.25
24.90
19.27
12.95
8.33
6.80
6.94
6.41
3.80
0.18
-1.91
-0.43
4.79
11.86
18.18
20.64
17.70
10.31
1.60
-4.77
-6.49
-3.29
3.42
12.02
20.91
29.65
39.00
50.34
64.50
80.92
97.62
112.02
122.09
126.78
126.38
122.15
115.77
108.57
101.29
94.09
86.75
78.94
70.32
60.73
50.32
39.58
29.24
20.00
12.34
6.40
2.08
-0.71
-1.80
-0.90
2.10
6.66
11.49
14.94
15.78
13.89
10.56
8.06
8.75
14.28
25.31
41.72
63.02
88.54
117.15
146.65
173.48
193.21
201.71
196.39
177.04
145.54
104.96
58.65
9.74
-38.48
-82.03
-116.29
-136.90
-141.51
-131.26
-111.01
-88.02
-69.42
-59.61
-58.99
-64.56
-72.03
-78.19
-82.28
-85.87
-91.36
-100.36
-112.73
-126.73
-140.06
-150.91
-158.46
-162.77
-164.37
-163.99
-162.46
-160.91
-160.76
-163.22
-168.48
-175.01
-179.58
-178.29
-168.19
-148.84
-122.73
-94.48
-68.95
-49.27
-35.90
-26.95
-19.50
-11.21
-0.99
11.05
24.46
39.20
55.83
75.04
96.99
120.73
144.20
164.53
178.61
183.72
178.30
162.65
139.14
111.99
86.16
66.02
54.16
50.97
55.14
64.52
76.85
89.92
101.48
109.17
110.88
105.46
93.23
75.96
56.38
37.33
21.24
9.95
4.67
5.81
12.73
23.51
35.05
43.59
45.74
39.39
24.27
2.10
-24.03
-50.19
-72.67
-88.60
-96.54
-96.71
-90.74
-81.31
-71.47
-64.14
-61.47
-64.51
-73.08
-85.90
-101.14
-116.81
-131.21
-142.99
-151.18
-155.24
-155.25
-152.12
-147.36
-142.54
-138.40
-134.25
-128.10
-117.42
-100.34
-76.55
-47.55
-16.16
14.31
40.92
61.70
75.87
83.94
87.52
89.00
91.05
96.05
105.50
119.65
137.39
156.40
173.68
186.36
192.52
191.68
184.73
173.34
159.12
143.25
126.35
108.76
90.81
72.95
55.64
39.32
24.42
11.48
1.31
-5.27
-7.65
-5.88
-0.70
6.59
14.31
20.82
24.85
25.83
24.24
21.55
19.72
20.41
24.29
30.76
38.46
46.08
52.74
57.88
60.44
58.33
48.55
28.34
-3.31
-44.85
-92.56
-142.01
-189.51
-232.68
-269.83
-298.69
-315.78
-317.15
-300.27
-265.90
-218.55
-165.19
-112.84
-66.62
-29.05
-0.81
18.37
29.18
32.99
32.24
30.54
31.67
38.34
51.19
68.70
87.94
105.85
120.32
130.77
138.13
144.28
151.35
160.75
172.22
183.12
188.69
183.35
162.90
126.70
78.81
27.23
-18.78
-52.06
-70.14
-75.86
-75.58
-76.02
-81.47
-92.59
-107.05
-121.26
-131.79
-135.60
-129.78
-111.81
-80.78
-39.18
6.19
45.53
69.34
72.28
55.50
25.88
-7.30
-36.31
-57.54
-71.43
-80.41
-86.53
-90.17
-90.51
-86.74
-79.19
-69.29
-58.75
-48.48
-38.34
-27.44
-14.94
-0.72
14.50
29.27
41.67
49.68
51.73
47.26
37.20
24.07
11.21
1.83
-2.54
-2.61
-0.80
0.27
-0.89
-3.90
-7.12
-8.74
-7.40
-3.33
1.79
5.79
7.35
6.35
3.93
1.56
0.19
0.70
2.59
4.22
4.13
2.55
1.04
2.04
6.83
14.82
25.58
37.97
50.54
62.57
74.51
86.63
98.60
108.50
113.74
114.59
112.50
108.85
104.74
101.18
98.07
95.16
91.53
73.93
38.95
-4.84
-44.32
-71.85
-83.41
-84.09
-77.22
-64.56
-46.83
-25.55
-2.72
17.75
32.04
38.99
40.07
39.15
39.08
40.07
40.95
38.75
29.73
11.97
-12.95
-40.80
-65.74
-83.07
-90.58
-87.95
-77.63
-64.84
-55.69
-54.78
-63.92
-81.10
-101.96
-121.50
-135.40
-141.60
-140.74
-135.00
-126.50
-116.44
-104.84
-91.30
-75.72
-58.44
-40.27
-22.09
-4.33
13.36
31.71
51.19
71.29
90.47
106.76
118.50
124.67
124.80
118.49
105.30
85.19
59.47
31.45
6.16
-11.14
-17.05
-11.55
1.80
17.20
28.91
33.24
29.63
20.25
8.81
-0.85
-5.81
-4.55
2.81
14.65
28.32
40.72
49.39
53.31
53.24
51.46
50.78
53.44
60.50
71.63
85.58
100.57
114.63
125.75
132.05
132.23
126.13
114.93
100.90
86.61
74.24
64.92
58.77
55.17
53.17
51.88
50.67
49.17
47.22
44.67
41.35
36.92
31.07
23.63
14.67
4.60
-5.89
-16.07
-25.35
-33.48
-40.47
-46.49
-51.64
-55.92
-59.29
-61.82
-63.81
-65.64
-67.59
-69.52
-70.86
-70.79
-68.67
-64.40
-58.60
-52.35
-46.81
-42.83
-40.71
-40.21
-40.67
-41.24
-41.08
-39.65
-36.81
-32.91
-28.67
-24.87
-22.22
-21.17
-21.83
-23.94
-26.76
-28.97
-28.73
-24.23
-14.45
0.10
17.17
33.32
45.23
50.88
50.28
44.97
37.11
28.30
19.20
9.75
-0.03
-9.52
-17.56
-22.96
-25.05
-23.91
-20.10
-14.16
-6.32
3.31
14.34
25.75
36.00
43.55
47.56
48.26
46.85
45.08
44.38
45.11
46.44
46.76
44.49
38.94
30.75
21.71
14.22
10.42
11.59
17.80
27.97
39.89
50.40
55.51
51.23
34.97
6.69
-30.74
-72.43
-113.04
-148.55
-177.04
-198.73
-214.55
-224.59
-227.90
-223.61
-212.13
-195.35
-175.93
-155.83
-136.45
-117.93
-99.06
-78.43
-55.90
-33.27
-13.60
-0.58
3.17
-4.46
-23.13
-48.26
-71.67
-84.29
-79.48
-54.58
-12.35
40.59
93.12
133.37
153.04
149.29
124.29
83.24
33.50
-17.86
-51.46
-50.77
-14.46
42.17
100.09
147.99
179.34
197.23
202.60
195.57
174.77
139.70
95.04
48.00
7.26
-20.50
-32.51
-31.68
-24.03
-17.89
-19.55
-30.01
-46.77
-64.06
-76.93
-83.78
-87.73
-93.45
-105.64
-126.02
-152.36
-181.91
-209.58
-230.00
-239.13
-235.70
-220.28
-195.55
-164.79
-118.00
-58.06
3.61
55.50
92.86
115.51
127.30
129.54
122.88
108.79
86.41
58.71
31.01
8.44
-6.33
-13.05
-13.13
-7.64
3.22
18.13
36.84
58.92
82.57
104.62
122.13
133.75
140.60
144.87
146.97
146.52
142.49
133.97
121.16
105.89
90.98
79.19
72.03
68.79
68.14
68.82
69.79
69.75
66.89
59.12
45.18
25.65
3.10
-18.41
-35.08
-45.28
-50.22
-53.01
-56.73
-62.51
-69.08
-73.90
-75.01
-72.59
-68.94
-66.95
-68.21
-71.82
-74.75
-73.53
-66.05
-52.60
-35.67
-18.86
-5.41
2.96
6.49
7.33
8.84
14.61
27.21
47.44
73.88
103.39
131.90
155.38
170.46
174.73
167.07
148.23
121.41
92.12
67.00
51.58
47.98
53.77
62.74
67.36
61.73
43.56
14.54
-20.78
-57.15
-90.33
-117.81
-138.72
-153.18
-161.71
-165.09
-164.51
-161.62
-158.49
-157.15
-158.86
-163.72
-170.63
-177.75
-183.27
-185.97
-185.36
-181.37
-173.96
-162.95
-148.22
-130.16
-109.83
-88.66
-67.89
-48.06
-28.94
-10.15
8.15
24.82
38.01
45.90
47.50
43.18
34.47
23.61
12.86
4.10
-1.55
-3.85
-3.43
-1.56
0.29
1.06
0.40
-1.28
-3.20
-4.64
-5.36
-5.48
-5.32
-5.13
-5.05
-5.22
-5.97
-7.76
-10.99
-15.55
-20.71
-25.10
-27.17
-25.71
-20.30
-11.52
-0.65
10.72
21.27
30.31
37.83
44.22
49.89
54.91
58.90
61.30
61.67
60.06
57.04
53.47
50.16
47.50
45.37
43.29
40.74
37.38
33.14
28.21
22.82
17.19
11.47
5.78
0.22
-5.15
-10.36
-15.51
-20.80
-26.37
-32.27
-38.35
-44.19
-49.16
-52.50
-53.48
-51.56
-46.56
-38.77
-28.88
-17.85
-6.64
4.04
13.82
22.58
30.29
36.84
41.98
45.54
47.58
48.50
49.04
49.88
51.32
53.02
54.07
53.37
50.14
44.26
36.33
27.45
18.78
11.12
4.78
-0.33
-4.54
-8.10
-11.05
-13.25
-14.50
-14.78
-14.49
-14.53
-16.06
-20.00
-26.43
-34.17
-40.98
-44.29
-42.22
-34.28
-21.34
-5.00
13.23
32.43
52.05
71.31
88.74
102.26
109.83
110.39
104.30
93.30
79.82
66.16
53.89
43.68
35.43
28.64
22.68
17.01
11.32
5.64
0.34
-3.96
-6.46
-6.40
-3.24
3.13
12.37
23.63
35.68
47.08
56.39
62.51
65.08
64.63
62.82
62.19
65.48
74.65
90.02
109.90
131.16
150.22
164.18
171.36
171.51
165.50
155.02
142.13
128.74
115.95
103.43
89.66
72.86
52.60
30.90
12.23
1.86
3.50
17.56
40.69
67.25
91.71
110.47
122.44
128.29
129.06
125.33
117.39
105.59
90.90
75.09
60.30
48.45
40.70
37.16
36.97
39.31
43.17
47.39
50.54
51.12
47.67
39.02
24.44
4.08
-19.78
-44.30
-67.31
-88.04
-106.81
-124.42
-141.64
-158.83
-175.53
-188.25
-193.69
-190.90
-182.05
-171.00
-161.50
-156.20
-156.10
-160.37
-163.01
-158.04
-142.89
-119.28
-90.80
-60.46
-29.86
0.53
30.86
66.15
110.23
162.49
217.95
271.24
319.49
362.36
400.31
403.21
351.91
251.02
127.58
10.70
-82.59
-147.20
-185.02
-201.64
-204.48
-195.80
-176.41
-148.96
-118.91
-91.92
-71.91
-60.47
-57.52
-62.13
-72.28
-83.03
-90.98
-95.89
-99.14
-102.19
-106.85
-113.24
-120.54
-125.51
-125.26
-119.99
-113.04
-106.00
-100.87
-98.31
-97.62
-97.56
-95.80
-90.34
-81.20
-70.21
-59.72
-51.74
-46.84
-44.33
-42.87
-40.66
-36.11
-28.87
-19.76
-10.13
-1.61
4.80
8.87
11.01
12.12
13.45
16.19
21.06
28.17
36.74
45.42
52.71
57.25
58.28
55.90
51.01
44.93
39.06
34.38
31.36
29.91
29.43
29.02
27.83
25.23
21.00
15.36
8.88
2.30
-3.64
-8.39
-11.68
-13.56
-14.37
-14.60
-14.78
-15.26
-16.15
-17.26
-18.16
-18.58
-18.45
-18.11
-18.12
-19.03
-21.05
-23.90
-26.85
-28.94
-29.30
-27.50
-23.66
-18.38
-12.53
-6.94
-2.16
1.58
4.33
6.28
7.63
8.50
8.96
9.03
8.72
8.04
6.93
5.37
3.37
1.12
-1.10
-2.99
-4.34
-5.15
-5.57
-5.90
-6.39
-7.23
-8.50
-10.12
-11.86
-13.39
-14.35
-14.50
-13.82
-12.56
-11.14
-10.00
-9.50
-9.78
-10.87
-12.70
-15.08
-17.61
-19.72
-20.67
-19.79
-16.71
-11.57
-4.93
2.38
9.56
16.00
21.40
25.74
29.09
31.49
32.95
33.44
33.02
31.91
30.44
28.97
27.72
26.67
25.61
24.34
22.85
21.34
20.19
19.64
19.68
20.00
20.16
19.83
18.95
17.67
16.22
14.73
13.25
11.70
10.05
8.25
6.18
3.56
-0.02
-4.84
-10.71
-16.88
-22.12
-25.21
-25.41
-22.80
-18.21
-12.91
-8.17
-4.99
-4.01
-5.45
-9.12
-14.38
-20.20
-25.32
-28.65
-29.63
-28.37
-25.61
-22.29
-19.24
-16.98
-15.69
-15.34
-15.81
-16.91
-18.38
-19.91
-21.16
-21.98
-22.39
-22.62
-22.91
-23.38
-23.89
-24.10
-23.72
-22.67
-21.29
-20.23
-20.28
-22.06
-25.69
-30.60
-35.57
-38.96
-39.22
-35.39
-27.48
-16.53
-4.27
7.43
17.13
24.16
28.62
31.14
32.56
33.74
35.42
38.19
42.43
48.25
55.53
64.09
73.88
84.90
96.91
108.83
118.55
123.21
120.00
107.13
84.42
53.37
16.69
-22.29
-60.12
-93.68
-120.65
-140.11
-152.95
-161.82
-170.01
-179.89
-191.49
-202.31
-208.53
-207.13
-197.49
-181.85
-164.43
-149.50
-139.69
-135.04
-133.15
-129.96
-121.03
-102.81
-73.67
-34.70
10.32
55.84
96.25
127.74
149.26
162.41
170.05
174.79
177.92
179.31
178.14
173.69
166.00
155.88
144.63
133.62
124.00
116.51
111.36
108.06
105.64
103.05
99.52
94.98
89.80
84.43
78.96
73.08
66.40
58.96
51.44
45.00
40.86
39.63
41.12
44.35
47.90
50.51
51.47
50.81
49.10
46.92
44.31
40.65
34.97
26.61
15.77
3.49
-8.66
-19.08
-26.54
-30.22
-29.57
-24.35
-15.10
-3.59
6.78
11.53
6.36
-11.22
-40.60
-77.80
-116.56
-150.14
-173.30
-183.81
-182.57
-172.75
-158.21
-141.90
-125.14
-107.87
-89.48
-69.57
-48.23
-25.76
-2.44
21.37
44.74
65.70
81.34
88.65
85.80
73.21
53.61
31.15
9.97
-6.99
-18.59
-25.17
-27.92
-28.24
-27.33
-26.17
-25.52
-25.82
-27.12
-29.15
-31.43
-33.52
-35.05
-35.80
-35.51
-33.99
-31.21
-27.45
-23.39
-19.94
-17.98
-18.02
-20.15
-24.13
-29.63
-36.39
-44.22
-52.83
-61.65
-69.79
-76.26
-80.30
-81.59
-80.33
-76.99
-72.05
-65.68
-57.67
-47.83
-36.42
-24.60
-14.44
-8.41
-8.60
-15.96
-29.96
-48.89
-70.55
-92.83
-113.97
-132.35
-146.26
-153.95
-154.11
-146.35
-131.41
-110.75
-85.95
-58.27
-28.76
1.40
30.77
57.88
81.94
103.34
123.43
143.58
164.11
183.65
199.68
209.72
212.54
208.63
199.84
188.33
175.85
163.31
151.08
139.31
128.22
117.98
108.62
99.90
91.46
82.96
74.37
65.99
58.34
52.04
47.50
44.80
43.58
43.02
42.14
40.06
36.28
31.08
25.59
21.32
19.30
19.79
22.23
25.53
28.51
30.21
30.51
30.17
30.40
32.21
36.22
42.79
51.96
63.50
76.48
89.79
102.29
112.87
119.85
121.74
117.67
107.59
92.26
72.11
48.90
25.81
6.71
-6.89
-15.22
-19.77
-22.59
-25.53
-31.80
-42.12
-54.28
-64.17
-71.30
-76.29
-79.53
-80.25
-77.08
-72.28
-66.86
-59.78
-48.47
-36.28
-27.86
-27.25
-37.04
-58.92
-97.91
-153.88
-218.88
-278.14
-322.05
-343.79
-340.08
-311.91
-236.50
-118.99
7.11
90.43
129.30
131.24
107.18
66.17
18.21
-27.64
-69.58
-106.27
-134.55
-148.98
-151.23
-144.74
-133.12
-119.14
-104.93
-94.81
-89.20
-83.94
-72.53
-55.66
-37.68
-23.92
-17.72
-19.30
-27.79
-38.94
-46.30
-43.56
-30.55
-10.78
10.55
28.43
39.11
40.04
32.04
19.28
7.87
1.71
2.35
8.87
19.02
30.34
41.06
51.00
61.19
72.70
85.09
96.89
106.41
112.75
116.04
117.52
119.21
123.63
133.43
150.65
175.63
205.85
235.71
257.57
264.08
250.59
216.75
166.47
106.48
44.23
-13.67
-62.27
-98.32
-120.07
-127.29
-121.19
-104.36
-80.17
-52.23
-23.85
2.31
24.56
42.48
57.12
70.61
85.18
101.97
120.10
136.73
148.23
151.82
147.02
136.08
123.12
112.50
107.17
107.83
113.03
120.09
126.21
129.38
128.65
123.94
115.53
103.73
88.73
70.79
50.56
29.17
8.11
-11.13
-27.54
-40.85
-51.45
-60.08
-67.29
-73.13
-77.27
-79.34
-79.55
-78.91
-78.97
-81.05
-85.51
-91.57
-97.92
-103.76
-109.55
-116.93
-127.91
-143.74
-164.12
-187.28
-210.51
-231.15
-247.27
-257.96
-263.30
-264.04
-261.35
-256.45
-250.21
-242.90
-234.12
-223.15
-209.52
-193.47
-176.15
-159.50
-145.85
-137.33
-135.10
-138.58
-145.19
-150.70
-150.62
-141.77
-123.46
-97.62
-67.60
-36.28
-4.63
28.29
64.07
102.82
141.81
175.69
198.28
204.97
194.84
171.18
140.44
110.13
86.44
72.57
68.45
71.75
79.59
89.98
102.27
116.35
131.36
145.18
154.99
158.77
156.63
151.17
146.25
145.13
148.88
155.97
163.34
167.83
167.27
160.68
148.03
129.82
106.90
80.23
50.69
19.38
-12.34
-42.79
-69.71
-90.75
-103.90
-108.38
-105.56
-98.88
-92.13
-87.82
-86.64
-87.21
-87.45
-85.44
-80.16
-72.35
-64.66
-59.86
-59.55
-64.08
-71.58
-78.85
-81.49
-74.77
-55.69
-24.87
14.57
58.35
101.78
142.19
175.12
194.87
200.29
194.82
180.05
154.44
119.11
72.12
15.71
-44.84
-103.27
-155.23
-194.11
-217.81
-226.98
-223.33
-209.32
-186.79
-158.26
-126.71
-95.08
-65.88
-41.23
-21.16
-3.78
12.67
29.00
43.81
54.45
58.68
55.87
46.53
32.80
17.56
2.99
-9.47
-19.39
-26.76
-31.31
-32.48
-30.04
-23.78
-13.66
-0.24
15.35
31.22
44.84
53.46
54.41
45.12
23.98
-9.02
-51.74
-99.64
-146.42
-185.26
-210.53
-219.10
-210.95
-188.53
-155.51
-115.70
-72.38
-28.40
13.51
50.67
80.65
101.89
113.97
117.77
114.94
107.20
95.65
80.74
62.92
43.63
25.95
14.13
12.13
21.70
41.25
66.04
89.89
107.64
116.89
118.48
115.27
110.54
106.61
104.47
104.02
104.60
105.38
105.52
104.35
101.59
97.56
93.08
89.25
87.16
87.58
90.83
96.58
103.59
109.61
111.81
107.58
95.79
77.50
55.70
33.77
13.66
-5.24
-25.38
-49.10
-76.52
-104.83
-129.48
-146.75
-155.91
-159.73
-162.82
-169.00
-179.15
-190.89
-199.93
-202.13
-195.13
-178.78
-154.45
-124.16
-90.00
-54.21
-19.38
11.73
36.95
55.48
68.33
78.03
87.83
100.64
118.19
140.37
165.39
190.09
210.88
224.59
229.20
225.03
214.91
203.22
194.05
189.42
188.39
187.86
184.32
175.49
161.94
146.73
133.40
123.55
116.05
107.94
96.10
78.62
54.59
24.72
-8.58
-41.81
-71.08
-92.62
-103.73
-104.50
-99.02
-95.60
-102.63
-124.05
-157.41
-195.24
-228.22
-248.84
-254.12
-241.22
-213.95
-183.11
-158.94
-144.14
-135.41
-128.47
-121.41
-114.39
-107.75
-101.66
-94.85
-84.73
-69.55
-50.02
-29.06
-10.38
3.29
11.10
13.66
13.08
12.45
14.22
18.90
25.19
31.19
35.57
38.12
39.16
39.54
40.34
42.20
44.81
47.16
48.08
46.76
42.88
36.39
27.69
17.69
7.55
-1.75
-9.61
-15.74
-19.95
-22.08
-22.02
-19.77
-15.49
-9.69
-3.18
3.20
8.85
13.50
17.12
19.63
20.83
20.54
18.81
16.14
13.30
11.13
10.02
9.88
10.08
9.93
8.92
6.93
4.17
0.93
-2.53
-6.07
-9.63
-13.11
-16.39
-19.33
-21.82
-23.91
-25.65
-27.17
-28.60
-30.08
-31.85
-34.15
-37.18
-40.82
-44.55
-47.50
-48.64
-47.26
-43.25
-37.21
-30.24
-23.51
-17.83
-13.41
-9.99
-7.11
-4.47
-2.18
-0.68
-0.55
-2.28
-5.96
-11.23
-17.38
-23.51
-28.86
-32.96
-35.82
-37.80
-39.48
-41.32
-43.39
-45.19
-45.56
-42.90
-35.56
-22.49
-3.75
19.28
44.17
68.21
89.20
106.09
118.98
128.75
136.27
141.96
145.60
146.63
144.60
139.58
132.24
123.69
115.12
107.41
101.01
95.95
92.00
88.92
86.63
85.20
84.76
85.28
86.37
87.24
86.93
84.69
80.27
73.99
66.42
57.97
48.63
38.14
26.40
14.00
2.26
-7.15
-12.96
-14.91
-13.84
-11.26
-8.66
-7.09
-7.05
-8.72
-12.14
-17.13
-23.22
-29.57
-35.29
-39.96
-44.01
-48.61
-55.01
-63.68
-73.70
-83.00
-89.25
-90.97
-88.39
-83.34
-78.46
-75.92
-76.46
-79.12
-81.71
-81.82
-77.71
-68.90
-56.09
-40.73
-24.50
-8.83
5.35
17.52
27.46
35.10
40.47
43.80
45.57
46.59
47.80
49.89
52.97
56.39
58.91
59.24
56.48
50.43
41.43
30.03
16.55
0.95
-16.84
-36.45
-56.80
-76.18
-92.70
-104.79
-111.47
-112.35
-107.60
-97.90
-84.47
-69.05
-53.48
-39.18
-26.64
-15.36
-4.29
7.42
19.82
32.02
42.71
50.79
55.87
58.32
59.08
59.27
60.00
62.07
65.87
71.25
77.48
83.55
88.48
91.63
92.73
91.72
88.47
82.72
74.07
62.08
46.37
26.74
3.27
-23.48
-52.36
-81.73
-109.65
-134.41
-154.94
-171.04
-183.14
-191.96
-198.03
-201.58
-202.71
-201.74
-199.40
-196.85
-195.25
-195.32
-197.04
-199.60
-201.93
-203.19
-203.17
-202.35
-201.49
-201.12
-201.22
-201.00
-198.78
-192.10
-178.14
-154.73
-121.48
-80.73
-37.33
2.85
35.17
58.17
73.73
85.38
95.50
103.30
104.86
95.42
72.79
39.47
2.82
-27.39
-42.64
-38.78
-16.95
17.73
58.88
101.33
142.16
180.27
215.05
245.43
269.93
287.47
298.37
304.48
308.32
311.78
315.20
317.29
316.21
310.76
301.18
289.15
276.95
266.56
258.77
253.00
247.32
239.12
226.21
207.77
185.21
162.20
143.49
133.00
131.75
137.09
143.53
144.98
137.37
119.90
94.64
64.81
33.18
1.36
-29.63
-58.53
-83.51
-102.72
-115.21
-121.47
-122.99
-121.25
-117.00
-110.02
-99.72
-85.82
-68.73
-49.54
-29.89
-11.88
1.86
8.37
5.20
-8.68
-32.10
-61.64
-92.55
-120.23
-141.53
-155.56
-163.55
-167.83
-170.74
-173.73
-177.03
-180.17
-182.58
-184.03
-184.71
-184.81
-184.16
-182.16
-178.19
-172.12
-164.62
-156.87
-150.02
-144.54
-140.11
-135.84
-130.98
-125.25
-119.00
-112.79
-106.86
-100.91
-94.23
-86.06
-76.06
-64.70
-53.26
-43.58
-37.40
-35.68
-38.16
-43.46
-49.56
-54.56
-57.42
-58.07
-57.18
-55.51
-53.44
-50.85
-47.41
-42.91
-37.42
-31.16
-24.29
-16.93
-9.34
-2.17
3.60
7.05
7.89
6.80
5.39
5.69
9.41
17.47
29.74
45.21
62.25
78.79
92.66
101.81
104.84
101.42
92.57
80.51
68.05
57.79
51.30
48.81
49.31
51.17
52.95
53.99
54.50
55.27
57.03
59.96
63.59
67.07
69.62
70.71
69.95
66.84
60.64
50.64
36.76
19.95
2.31
-13.54
-25.34
-32.07
-34.28
-33.83
-33.08
-34.09
-37.98
-44.83
-53.73
-63.11
-71.08
-75.68
-75.12
-67.94
-53.60
-32.85
-8.14
17.14
39.55
56.56
67.14
71.57
71.08
67.18
61.34
54.84
49.32
46.62
48.21
54.43
63.96
74.15
81.91
84.66
80.68
70.48
56.60
42.20
29.70
19.42
10.33
0.83
-10.16
-23.74
-38.85
-52.91
-63.65
-70.30
-74.71
-79.19
-85.29
-93.03
-103.03
-113.65
-122.19
-126.96
-128.21
-129.51
-134.59
-146.02
-164.10
-189.10
-216.92
-240.55
-253.11
-250.30
-233.61
-207.63
-178.77
-135.03
-77.28
-16.20
36.28
70.77
95.48
115.96
133.92
148.45
156.75
154.19
140.02
116.37
86.68
55.04
24.63
3.24
-1.08
13.72
38.45
66.18
92.66
116.75
136.60
151.29
161.85
169.25
173.26
171.93
165.49
156.38
148.74
147.05
153.36
166.59
182.10
193.63
195.81
187.23
169.28
144.88
117.75
91.41
68.83
51.59
39.50
30.82
23.46
14.78
2.87
-12.06
-27.71
-40.98
-49.77
-54.20
-56.08
-57.57
-58.87
-59.99
-60.20
-57.94
-52.14
-43.26
-33.46
-26.89
-23.88
-23.40
-24.01
-24.30
-23.85
-23.85
-24.62
-27.42
-32.73
-39.54
-46.22
-51.07
-52.81
-51.08
-46.65
-40.99
-35.83
-32.10
-29.39
-26.67
-22.90
-17.46
-10.76
-4.30
-0.12
-0.06
-4.75
-13.08
-22.86
-31.23
-35.32
-32.88
-22.96
-6.42
13.71
32.92
46.28
49.94
42.59
26.00
4.48
-16.69
-32.99
-41.80
-42.73
-37.11
-27.27
-15.82
-5.16
2.79
6.87
6.92
3.83
-0.49
-3.71
-3.81
0.06
7.04
14.82
20.52
21.97
18.75
12.39
5.59
0.87
-0.54
0.96
3.85
6.61
8.49
9.66
10.84
12.61
14.98
17.51
19.63
20.92
21.33
20.91
19.72
17.72
14.83
11.06
6.47
0.98
-5.85
-14.81
-26.74
-42.00
-59.96
-78.85
-96.36
-110.49
-120.32
-126.37
-130.11
-133.19
-136.61
-140.25
-143.10
-143.88
-141.74
-136.59
-128.96
-119.48
-108.71
-97.03
-84.58
-71.45
-57.69
-43.53
-29.28
-15.35
-1.75
11.26
23.17
33.39
41.54
47.64
51.87
54.77
57.08
60.66
67.12
77.09
90.05
104.32
117.41
126.47
129.50
125.98
118.38
109.52
101.04
93.25
85.99
79.61
75.31
75.47
82.24
97.79
120.70
145.66
166.04
177.04
177.66
170.11
158.72
136.46
102.64
63.38
27.44
0.03
-18.18
-26.91
-29.31
-27.69
-24.25
-19.47
-14.38
-12.02
-14.57
-22.47
-34.18
-47.20
-58.54
-66.19
-68.26
-64.84
-58.07
-50.69
-44.79
-41.02
-39.03
-37.39
-34.58
-28.22
-16.59
0.50
21.48
43.24
61.83
73.22
74.69
64.78
44.39
15.96
-17.48
-52.78
-86.61
-115.32
-135.21
-143.48
-140.07
-127.03
-107.60
-85.29
-63.03
-42.59
-24.77
-9.97
1.02
5.99
3.31
-6.36
-20.03
-33.56
-43.05
-45.96
-41.29
-24.54
2.98
33.29
56.78
68.54
69.46
64.77
59.15
56.08
57.16
62.26
69.87
78.33
86.39
93.19
98.08
100.42
99.85
96.44
90.21
82.16
74.22
68.28
64.86
62.87
60.48
56.57
51.33
45.35
38.98
31.89
23.09
11.42
-3.40
-20.45
-37.71
-53.01
-65.11
-73.74
-79.72
-84.02
-87.63
-91.45
-96.19
-101.89
-107.72
-112.32
-114.70
-115.79
-117.48
-121.62
-128.97
-138.61
-148.04
-154.06
-153.99
-146.56
-133.00
-114.64
-92.21
-66.77
-41.01
-19.04
-5.04
-1.49
-7.81
-22.03
-39.54
-54.64
-63.19
-64.27
-59.69
-52.03
-43.17
-23.92
6.92
41.82
70.28
86.51
90.73
86.77
79.37
71.95
65.62
58.12
47.72
35.52
24.92
19.11
19.02
22.88
27.07
27.54
22.16
11.46
-1.64
-13.80
-23.18
-29.74
-33.99
-36.33
-36.67
-35.07
-31.41
-25.69
-18.61
-11.93
-7.81
-7.09
-9.66
-15.02
-21.69
-27.11
-28.34
-23.23
-11.44
5.51
26.01
47.69
67.93
84.76
97.50
106.39
112.34
116.22
119.11
123.36
130.01
137.76
143.58
144.04
136.27
119.38
94.76
58.24
14.26
-27.13
-57.27
-74.26
-80.44
-81.17
-79.32
-75.88
-70.64
-63.65
-56.14
-50.43
-48.46
-50.22
-54.55
-59.85
-65.26
-69.94
-72.98
-74.78
-76.37
-78.15
-78.51
-75.59
-68.33
-57.10
-41.70
-23.00
-4.04
11.08
19.40
21.70
20.24
17.56
15.71
18.70
28.23
41.69
53.81
59.67
59.07
54.19
48.96
49.20
65.13
103.32
161.74
229.98
293.05
339.23
360.47
354.15
300.50
202.19
87.21
-9.21
-62.11
-82.65
-83.83
-74.88
-63.73
-55.44
-48.88
-42.04
-34.52
-27.05
-20.46
-15.81
-13.66
-15.92
-23.57
-32.92
-40.78
-47.24
-54.69
-64.77
-74.92
-81.85
-84.06
-81.06
-71.85
-57.30
-40.70
-26.86
-19.46
-19.01
-24.40
-35.03
-49.34
-64.39
-77.79
-89.19
-100.90
-114.61
-130.02
-145.30
-158.49
-167.48
-169.56
-162.14
-143.94
-116.90
-83.63
-47.39
-11.53
20.62
43.99
53.70
50.38
47.61
50.81
60.75
72.78
84.25
93.32
99.47
103.80
108.59
115.55
123.18
128.66
127.78
116.32
91.36
53.65
8.93
-33.24
-63.01
-74.65
-66.59
-41.79
-6.11
33.49
71.31
104.39
132.35
155.79
174.00
185.51
187.92
179.21
158.92
129.48
96.38
66.83
47.07
39.57
42.48
50.29
56.12
54.33
42.50
21.92
-3.73
-30.44
-55.54
-77.74
-96.54
-111.22
-120.68
-123.99
-121.24
-114.21
-105.78
-98.73
-94.37
-92.00
-89.28
-83.37
-72.35
-55.88
-35.25
-12.46
10.64
32.96
54.02
73.77
92.26
109.33
124.37
136.39
144.31
147.36
145.40
138.77
128.56
116.20
102.83
88.73
73.18
55.12
33.82
9.59
-17.09
-44.65
-70.65
-92.33
-107.63
-115.62
-116.40
-110.96
-101.02
-90.60
-83.39
-81.35
-84.63
-92.53
-103.95
-117.31
-130.65
-141.96
-152.40
-162.90
-173.00
-181.22
-186.96
-190.83
-194.13
-198.08
-203.38
-213.39
-229.62
-250.30
-271.49
-290.30
-305.38
-316.68
-324.86
-306.99
-252.73
-170.59
-82.08
-5.12
52.85
92.56
117.52
130.74
134.43
129.22
117.24
103.79
95.52
95.95
105.52
122.78
144.89
163.45
168.37
155.57
129.37
103.50
83.04
70.14
67.72
75.27
92.30
116.05
143.17
170.43
194.54
211.53
219.77
222.57
224.28
228.02
233.85
239.79
243.20
241.79
234.00
207.45
160.82
103.25
47.90
3.04
-29.71
-52.03
-66.22
-74.55
-78.56
-77.31
-70.55
-59.96
-47.90
-36.02
-24.88
-14.89
-6.52
-1.68
-0.63
-4.05
-12.31
-23.93
-36.00
-45.63
-51.99
-55.88
-58.55
-60.75
-60.85
-57.99
-51.95
-43.21
-33.23
-24.95
-21.28
-23.91
-31.80
-41.28
-49.50
-53.33
-50.00
-34.64
-8.04
22.46
44.05
52.53
47.55
30.38
3.73
-28.52
-62.41
-95.25
-124.92
-149.19
-165.35
-171.85
-168.53
-156.22
-136.93
-113.75
-90.62
-70.57
-54.77
-42.33
-32.17
-23.64
-16.59
-11.39
-8.54
-8.35
-10.05
-11.88
-11.60
-8.07
-1.11
9.05
22.21
38.14
56.12
75.00
93.25
109.39
121.76
128.72
128.64
120.15
102.61
77.00
46.58
16.48
-7.60
-21.43
-23.41
-14.72
1.64
22.21
44.05
64.96
83.19
97.14
105.41
107.24
102.80
93.37
80.96
67.74
55.44
44.88
36.01
28.16
20.60
12.95
5.36
-1.53
-6.96
-10.47
-12.28
-13.18
-14.36
-16.78
-20.72
-25.73
-30.88
-35.40
-39.22
-43.12
-48.30
-55.75
-65.70
-77.31
-88.83
-97.95
-101.99
-98.19
-84.03
-57.88
-19.94
26.97
77.43
124.40
161.27
183.87
191.70
187.66
176.43
162.45
148.25
134.08
118.69
100.75
79.99
57.63
35.92
17.21
3.19
-5.52
-9.28
-9.13
-6.50
-2.98
-0.14
0.75
-1.05
-5.67
-12.72
-21.62
-31.89
-43.25
-55.54
-68.52
-81.68
-94.37
-106.03
-116.46
-125.79
-134.19
-141.59
-147.49
-151.11
-151.74
-149.08
-143.39
-135.52
-126.62
-118.02
-111.09
-107.23
-107.71
-113.45
-124.70
-140.64
-159.17
-176.85
-189.33
-192.41
-183.24
-161.44
-129.19
-90.90
-51.97
-17.24
10.43
30.78
45.48
56.86
66.61
75.37
82.73
87.81
90.03
89.61
87.61
85.16
82.85
80.52
78.30
76.79
76.88
79.32
84.18
91.28
100.25
111.13
122.13
131.83
139.89
147.11
154.16
160.34
164.10
163.18
155.46
139.41
115.53
86.21
55.27
27.40
4.22
-12.82
-23.30
-27.72
-27.86
-25.67
-23.17
-22.12
-23.69
-28.28
-35.01
-42.78
-48.35
-50.16
-47.93
-42.69
-36.33
-30.74
-27.17
-25.36
-24.22
-22.25
-18.54
-12.53
-3.98
7.07
20.32
34.95
49.74
62.87
72.17
75.67
72.74
64.39
52.88
40.82
30.05
21.21
13.69
6.39
-1.43
-9.35
-15.90
-19.46
-19.12
-15.11
-8.20
0.93
12.06
25.21
39.93
54.65
66.59
72.67
70.64
60.29
43.29
21.91
-2.08
-27.82
-54.94
-82.96
-110.68
-136.47
-158.14
-174.03
-184.12
-189.86
-193.21
-195.56
-197.42
-198.44
-198.23
-195.81
-190.46
-182.72
-173.97
-165.44
-157.42
-149.62
-141.34
-132.13
-120.42
-104.28
-82.75
-56.27
-26.12
6.28
39.17
74.06
105.90
127.81
137.85
137.72
128.65
109.92
83.54
53.53
24.56
-0.24
-18.81
-30.67
-36.88
-38.83
-36.60
-28.83
-14.42
6.20
30.37
54.95
77.15
94.92
107.41
115.70
122.18
128.84
136.40
143.95
150.17
154.05
154.97
152.82
148.81
145.32
145.06
150.40
162.58
181.22
203.41
223.55
234.10
229.04
206.18
167.51
118.46
66.33
18.57
-18.88
-42.40
-51.74
-48.15
-34.62
-16.62
-1.64
2.84
-8.42
-37.08
-80.67
-134.25
-189.02
-234.40
-261.33
-264.91
-245.10
-206.31
-156.05
-95.42
-34.77
12.67
39.76
48.00
43.00
30.52
15.34
0.88
-10.87
-19.32
-23.42
-22.24
-16.24
-7.43
1.80
10.64
17.94
23.05
24.97
23.93
20.80
15.85
8.30
-2.70
-17.67
-36.19
-55.97
-73.51
-84.12
-84.03
-72.53
-52.87
-30.73
-13.08
-6.06
-12.61
-31.89
-59.86
-91.03
-120.28
-143.51
-156.82
-158.31
-148.41
-128.96
-102.34
-71.02
-37.16
-2.30
33.00
69.85
107.64
142.68
169.47
182.92
179.97
160.77
128.77
82.70
30.61
-15.22
-48.03
-70.35
-88.03
-104.59
-116.96
-118.90
-105.27
-73.58
-26.66
28.56
82.71
128.56
162.49
184.09
194.22
193.91
184.94
168.43
145.31
117.44
87.99
60.04
35.30
13.76
-5.48
-22.54
-37.38
-49.77
-59.06
-64.12
-64.04
-58.82
-49.68
-38.47
-26.70
-15.42
-5.16
4.02
12.15
18.90
23.49
25.36
24.97
24.09
24.98
29.21
36.85
46.50
56.05
63.77
69.17
73.11
77.16
82.66
89.92
98.01
105.03
108.79
107.42
99.93
86.58
68.75
48.70
28.87
11.16
-3.54
-15.58
-26.17
-36.74
-48.20
-60.63
-73.26
-85.08
-95.30
-103.71
-110.55
-116.31
-121.32
-125.64
-129.15
-131.63
-132.90
-132.86
-131.37
-128.34
-123.82
-118.16
-111.94
-105.92
-100.71
-96.72
-93.99
-92.30
-91.24
-90.28
-88.90
-86.59
-82.92
-77.61
-70.46
-61.32
-50.14
-36.95
-21.96
-5.59
11.50
28.50
44.60
59.14
71.71
82.30
91.21
98.92
105.81
111.89
116.68
119.42
119.37
116.13
110.06
102.19
94.04
87.20
83.01
82.29
85.13
90.86
97.93
104.31
107.92
107.07
100.91
89.47
73.72
55.33
36.35
18.51
3.26
-8.50
-16.69
-22.07
-25.97
-29.67
-33.85
-38.29
-42.56
-45.99
-48.20
-49.68
-51.89
-56.72
-65.29
-77.17
-90.24
-102.21
-110.70
-113.86
-110.84
-102.11
-89.38
-75.01
-61.71
-51.90
-48.18
-51.31
-59.55
-69.54
-78.12
-83.68
-86.26
-86.72
-79.60
-62.54
-37.22
-8.02
21.15
47.75
69.95
86.20
95.25
96.77
89.88
75.27
56.04
37.08
23.15
17.10
19.00
26.52
37.26
48.87
60.44
72.51
85.59
98.64
108.99
113.58
107.87
93.64
74.43
54.65
38.06
26.73
20.72
18.69
18.67
18.23
15.40
7.89
-5.42
-23.59
-43.71
-62.01
-75.39
-82.48
-84.16
-82.15
-78.72
-75.36
-72.29
-68.82
-64.09
-58.23
-50.87
-42.58
-33.97
-25.90
-19.22
-14.38
-11.36
-9.60
-8.06
-5.50
-1.07
5.67
14.31
23.51
31.02
35.12
35.36
33.02
30.73
31.43
36.54
45.48
55.58
62.91
64.36
59.05
48.93
37.90
29.92
27.72
31.72
39.97
48.70
54.28
54.02
46.60
32.16
12.86
-6.52
-19.53
-20.39
-7.45
16.72
46.05
73.15
91.88
97.63
89.62
71.19
47.60
22.19
-2.65
-25.26
-44.42
-59.77
-71.76
-81.43
-90.48
-101.01
-116.46
-137.70
-162.02
-184.15
-198.90
-202.79
-194.47
-174.97
-136.60
-82.54
-24.55
24.51
58.19
75.90
79.69
72.22
56.63
36.73
15.12
-4.75
-20.80
-30.84
-34.62
-33.65
-29.83
-24.41
-18.08
-12.71
-9.46
-8.37
-8.51
-9.08
-8.57
-6.50
-2.95
1.37
4.48
5.13
3.44
0.82
-1.30
-2.01
-1.27
0.50
2.66
4.31
5.17
5.62
6.33
7.53
8.94
9.94
10.17
9.64
8.55
7.24
5.95
4.64
2.93
0.45
-2.83
-6.27
-8.78
-9.32
-7.30
-2.94
2.95
9.28
15.21
20.55
25.72
31.43
38.29
46.53
56.17
67.26
79.93
93.98
108.11
119.52
124.34
119.09
102.43
76.12
44.65
13.48
-13.02
-32.90
-46.49
-55.14
-59.68
-59.77
-54.30
-42.53
-25.21
-4.68
15.66
32.46
43.33
47.26
44.47
36.06
23.48
8.27
-8.07
-24.10
-38.41
-49.70
-56.92
-59.48
-57.40
-51.27
-42.29
-31.95
-21.77
-12.92
-6.00
-1.01
2.53
5.26
7.65
9.82
11.50
12.28
11.82
10.13
7.58
4.79
2.38
0.64
-0.55
-1.53
-2.68
-4.11
-5.65
-7.02
-8.10
-8.99
-10.03
-11.55
-13.66
-16.20
-18.92
-21.68
-24.57
-27.77
-31.30
-34.81
-37.46
-38.29
-36.56
-32.11
-25.41
-17.42
-9.22
-1.72
4.57
9.44
12.92
15.11
16.10
16.06
15.21
13.88
12.45
11.19
10.32
9.85
9.76
9.94
10.36
10.97
11.73
12.56
13.29
13.68
13.56
12.84
11.59
9.93
7.95
5.66
2.99
-0.13
-3.70
-7.59
-11.63
-15.63
-19.34
-22.44
-24.43
-24.72
-22.80
-18.54
-12.35
-5.09
2.15
8.45
13.29
16.58
18.52
19.37
19.32
18.46
16.88
14.69
12.12
9.41
6.83
4.61
2.96
1.95
1.56
1.61
1.84
1.99
1.87
1.47
0.86
0.18
-0.50
-1.23
-2.20
-3.59
-5.47
-7.72
-9.99
-11.83
-12.85
-12.83
-11.74
-9.66
-6.73
-3.05
1.23
5.81
10.17
13.74
16.07
17.06
17.02
16.44
15.73
15.00
14.05
12.54
10.37
7.75
5.18
3.17
1.92
1.29
0.88
0.23
-0.84
-2.30
-3.87
-5.24
-6.17
-6.63
-6.72
-6.68
-6.79
-7.35
-8.53
-10.39
-12.70
-14.93
-16.34
-16.21
-14.14
-10.23
-5.13
0.17
4.73
7.95
9.77
10.60
11.06
11.70
12.73
14.05
15.30
16.21
16.81
17.52
19.10
22.30
27.56
34.84
43.51
52.54
60.62
66.21
67.74
63.76
53.38
36.83
15.72
-7.18
-28.82
-46.93
-60.73
-70.85
-78.54
-84.62
-89.12
-91.47
-91.37
-89.31
-86.44
-83.77
-81.38
-78.09
-72.11
-62.08
-47.92
-31.05
-13.68
2.09
15.14
25.70
35.30
46.46
62.09
84.55
114.45
149.75
185.70
215.88
234.29
237.29
224.53
198.65
163.95
124.87
85.23
48.14
16.27
-8.00
-23.14
-29.11
-27.77
-22.43
-16.85
-13.97
-15.05
-19.68
-26.23
-32.74
-37.68
-40.33
-40.83
-39.95
-38.66
-37.72
-37.49
-37.87
-38.50
-39.11
-39.71
-40.56
-41.95
-43.88
-45.94
-47.36
-47.46
-45.94
-43.16
-39.91
-37.02
-35.01
-33.86
-33.13
-32.19
-30.45
-27.56
-23.35
-17.84
-11.16
-3.56
4.65
13.19
21.99
31.09
40.53
50.11
59.27
67.28
73.56
78.20
82.08
86.60
93.05
101.88
112.31
122.40
129.84
132.89
131.27
126.39
120.88
117.48
117.77
121.35
125.79
127.49
122.80
109.10
85.51
53.32
16.15
-20.38
-49.58
-65.44
-64.83
-49.06
-23.87
2.46
22.21
31.00
28.87
19.34
7.16
-4.03
-12.68
-19.00
-23.89
-28.16
-32.30
-36.95
-43.13
-51.92
-64.01
-79.09
-95.64
-111.21
-123.32
-130.35
-132.22
-130.51
-127.87
-127.38
-131.58
-141.67
-156.92
-174.89
-192.29
-205.90
-213.42
-213.73
-207.39
-196.52
-183.82
-171.12
-158.90
-146.61
-133.13
-117.70
-99.80
-79.86
-59.08
-38.64
-18.74
0.92
20.01
37.60
52.65
65.75
78.67
93.14
109.72
127.49
143.61
153.53
153.34
139.27
113.20
83.22
57.93
38.68
22.00
5.31
-12.47
-27.86
-36.81
-34.95
-20.48
4.05
32.42
57.84
75.29
81.73
78.33
69.69
62.84
62.89
69.71
78.60
83.94
82.53
72.98
57.28
37.75
16.33
-7.60
-36.77
-72.66
-112.21
-140.79
-144.07
-117.19
-70.96
-20.92
21.90
53.40
74.26
86.67
92.65
89.15
74.04
46.75
12.08
-22.48
-50.88
-71.17
-85.73
-92.11
-101.11
-115.29
-135.89
-158.85
-176.77
-182.62
-172.25
-145.43
-105.61
-60.81
-14.61
23.07
44.76
50.43
46.02
38.20
31.01
25.82
21.27
17.41
13.08
8.76
5.31
2.56
-0.72
-5.77
-13.04
-22.50
-32.92
-42.65
-48.88
-49.08
-42.49
-30.56
-16.13
-2.28
8.45
15.30
18.43
19.41
20.15
21.82
24.51
27.57
30.19
31.73
32.18
31.90
31.84
33.16
36.60
42.21
49.50
57.67
65.99
74.07
81.83
89.62
97.95
107.24
117.50
128.15
137.91
145.00
147.58
144.31
134.71
119.36
99.51
76.65
51.91
25.95
-0.95
-28.59
-56.47
-83.78
-109.35
-131.65
-148.92
-159.37
-161.52
-154.64
-139.07
-116.23
-88.47
-58.69
-29.98
-5.25
13.14
23.68
25.88
20.44
9.09
-5.50
-19.99
-30.78
-34.57
-29.32
-15.26
4.64
25.45
41.96
50.78
51.54
46.64
39.96
35.08
34.29
38.50
47.70
61.33
78.17
96.00
111.63
121.71
124.16
119.43
110.54
101.83
97.09
97.98
103.73
111.87
119.52
124.47
125.68
123.14
117.47
109.61
100.63
91.44
82.63
74.14
65.17
54.58
41.38
25.29
6.92
-12.59
-32.13
-50.99
-68.87
-85.63
-100.96
-114.51
-126.06
-135.76
-144.08
-151.46
-157.91
-162.84
-165.31
-164.55
-160.40
-153.50
-144.99
-136.05
-127.49
-119.60
-112.41
-105.91
-100.23
-95.59
-92.08
-89.56
-87.70
-86.24
-85.05
-84.01
-82.86
-80.85
-76.82
-69.43
-57.72
-41.49
-21.54
0.44
22.39
42.30
58.74
70.95
78.77
82.36
81.91
77.57
69.53
58.25
44.72
30.42
17.05
6.02
-1.90
-6.81
-9.33
-10.22
-9.91
-8.42
-5.49
-1.09
4.34
9.74
13.75
15.24
13.72
9.60
3.85
-2.45
-8.55
-14.30
-20.01
-26.16
-33.08
-40.79
-49.05
-57.38
-65.10
-71.35
-75.19
-75.74
-72.60
-66.03
-56.98
-46.84
-36.89
-27.95
-20.22
-13.47
-7.43
-1.96
2.85
6.97
10.60
14.24
18.43
23.47
29.16
34.97
40.29
44.84
48.73
52.30
55.83
59.20
61.95
63.46
63.46
62.18
60.34
58.82
58.18
58.48
59.29
59.96
60.02
59.30
57.95
56.26
54.58
53.32
53.02
54.38
58.16
64.94
74.83
87.36
101.51
115.96
129.32
140.36
148.20
152.38
152.92
150.42
145.83
140.44
135.55
132.35
131.75
134.22
139.54
146.51
153.24
157.71
158.78
156.69
152.99
149.45
146.86
144.29
139.36
129.48
113.18
90.79
63.88
34.04
1.75
-33.61
-72.61
-114.28
-155.36
-190.88
-216.06
-228.49
-229.33
-223.00
-215.69
-212.88
-217.44
-229.16
-245.34
-262.57
-277.98
-289.98
-298.37
-303.99
-307.97
-311.34
-314.99
-319.70
-326.11
-334.19
-342.55
-348.37
-348.13
-338.13
-315.50
-279.05
-229.54
-169.74
-103.17
-33.05
38.06
107.34
172.29
230.79
280.99
321.61
351.11
369.14
376.86
376.09
366.97
349.39
324.27
294.09
263.17
234.56
211.20
195.30
186.95
181.79
175.06
164.79
152.22
140.93
130.70
119.45
103.96
80.38
43.05
-9.98
-74.44
-141.53
-200.89
-249.09
-286.24
-314.11
-313.55
-273.97
-203.83
-125.24
-68.20
-29.77
-5.86
5.39
9.12
7.69
0.54
-11.70
-25.45
-35.42
-36.18
-28.87
-16.87
-3.76
7.00
10.98
5.96
-6.40
-21.57
-33.48
-40.22
-41.28
-36.78
-28.05
-18.54
-11.78
-9.64
-11.75
-15.52
-19.37
-21.63
-20.96
-17.45
-13.07
-10.26
-10.60
-14.16
-19.58
-25.76
-31.44
-35.27
-36.45
-35.20
-32.52
-29.91
-28.91
-30.57
-35.31
-42.35
-49.91
-55.91
-58.67
-57.39
-52.22
-44.04
-34.15
-23.72
-13.45
-3.30
7.57
20.65
37.59
59.42
85.92
115.29
144.67
170.99
191.79
206.16
215.38
222.89
233.40
251.07
276.67
306.73
333.52
347.19
339.82
309.36
261.12
205.64
153.76
110.75
76.04
44.15
8.01
-37.37
-92.10
-151.74
-209.88
-261.36
-305.56
-342.88
-373.36
-396.51
-411.93
-419.88
-422.08
-421.43
-420.28
-420.32
-417.43
-403.63
-371.81
-320.28
-253.50
-180.09
-108.84
-32.73
43.94
112.10
164.42
198.51
214.87
216.03
206.56
192.58
180.16
171.02
165.83
164.28
166.28
169.60
172.72
174.88
175.79
175.51
172.41
166.41
158.58
150.07
141.17
132.21
123.81
115.63
109.06
104.46
102.62
104.06
108.19
112.90
115.43
113.06
103.90
87.89
66.23
42.17
20.01
3.22
-7.04
-12.31
-16.15
-22.54
-33.85
-50.20
-69.35
-87.91
-102.52
-110.42
-109.32
-97.83
-76.55
-49.16
-22.39
-4.05
0.45
-8.98
-26.60
-43.35
-51.22
-46.90
-32.58
-13.96
3.31
16.32
25.04
30.83
34.40
34.98
30.99
21.24
6.09
-12.49
-31.40
-47.55
-59.02
-65.72
-69.42
-73.03
-79.35
-89.92
-104.32
-120.35
-135.04
-145.94
-151.88
-153.08
-150.57
-145.34
-137.97
-128.56
-117.31
-105.01
-93.11
-83.02
-75.24
-68.62
-60.37
-47.15
-26.49
1.28
32.54
61.17
80.85
87.70
81.94
67.70
50.94
37.02
28.49
24.94
24.11
23.39
20.62
13.85
0.94
-20.57
-51.41
-89.50
-128.61
-159.32
-172.10
-161.09
-126.90
-76.82
-22.93
23.79
55.52
70.25
71.38
65.44
59.08
56.73
59.61
65.09
71.61
76.59
78.65
77.86
75.46
73.53
74.48
80.15
89.02
100.64
109.97
110.29
95.46
62.56
13.89
-43.15
-98.45
-145.31
-176.75
-194.03
-202.36
-207.62
-213.19
-218.93
-222.38
-206.77
-189.50
-168.33
-143.80
-115.08
-79.93
-36.37
15.28
71.31
125.50
169.15
200.49
218.56
225.40
224.46
218.99
211.02
201.24
189.45
173.53
155.46
136.06
116.95
100.14
87.30
79.00
74.17
70.49
64.15
54.57
41.90
28.31
17.21
11.59
12.65
19.30
28.76
37.32
43.23
45.46
44.00
39.22
31.50
21.15
8.76
-4.56
-17.43
-27.99
-34.84
-37.12
-34.59
-27.58
-17.00
-4.26
8.89
20.97
31.16
39.58
46.88
53.53
59.24
63.01
63.75
61.14
56.11
50.54
46.49
45.18
46.52
49.39
52.33
54.21
54.62
53.66
51.57
48.46
44.18
38.51
31.38
22.96
13.55
3.39
-7.58
-19.66
-33.15
-47.97
-63.44
-78.37
-91.53
-102.15
-110.22
-116.26
-120.87
-124.18
-125.72
-124.68
-120.38
-112.66
-102.03
-89.41
-75.80
-62.10
-48.98
-36.86
-25.89
-15.98
-6.79
2.12
11.09
20.14
28.87
36.60
42.53
45.98
46.50
43.98
38.80
31.92
24.90
19.71
18.29
21.99
31.06
44.44
59.99
74.95
86.71
93.35
94.04
89.11
79.80
67.81
54.87
42.29
30.81
20.50
10.94
1.37
-9.05
-20.91
-34.19
-48.03
-60.74
-70.28
-75.06
-74.68
-70.40
-64.69
-60.32
-59.14
-61.24
-64.79
-66.75
-64.05
-54.73
-38.63
-17.41
6.12
28.96
48.74
64.17
74.93
81.23
83.44
81.92
77.17
70.17
62.53
56.32
53.43
54.72
59.55
65.57
69.45
67.95
58.93
41.83
17.46
-12.65
-46.73
-82.86
-118.74
-151.45
-177.91
-195.76
-204.41
-205.37
-201.60
-196.11
-190.45
-184.09
-174.95
-160.66
-140.00
-113.62
-83.97
-54.45
-28.32
-7.79
6.61
15.98
22.48
28.42
35.49
44.32
54.66
66.05
78.42
92.30
108.42
126.90
146.74
166.03
182.72
195.63
204.57
209.69
210.61
206.10
194.84
176.65
153.33
127.97
103.20
79.48
54.84
26.52
-6.53
-42.13
-75.73
-103.06
-123.05
-138.91
-156.40
-180.46
-212.29
-248.55
-282.95
-309.18
-323.43
-325.05
-315.73
-297.94
-273.85
-245.12
-213.38
-180.51
-148.32
-118.08
-90.08
-64.12
-40.56
-21.69
-11.84
-15.94
-36.84
-73.12
-118.66
-164.21
-200.21
-219.25
-217.72
-196.02
-157.77
-108.65
-55.52
-5.41
35.82
64.95
82.67
92.70
99.60
106.88
116.40
128.29
141.30
153.15
160.64
160.85
151.59
132.08
103.93
71.63
41.29
17.99
3.90
-1.79
-0.31
7.65
22.07
43.13
70.82
104.07
139.97
173.04
192.12
188.68
163.96
127.22
88.56
54.74
28.54
8.94
-7.27
-23.33
-39.72
-55.22
-67.03
-73.17
-72.97
-66.78
-56.28
-43.73
-30.70
-16.43
0.24
19.52
40.12
57.04
66.65
67.01
58.44
43.68
28.74
19.55
20.24
31.95
52.86
78.86
103.54
119.63
121.00
106.77
79.06
42.92
5.28
-26.11
-44.22
-44.98
-27.81
4.93
50.97
104.60
157.55
200.35
225.36
229.44
214.55
187.30
142.84
87.25
32.83
-8.75
-33.67
-44.47
-45.59
-41.57
-36.99
-36.46
-38.33
-44.03
-53.21
-63.57
-71.38
-73.13
-67.50
-55.61
-39.92
-20.89
-2.27
12.85
21.93
23.91
19.40
10.72
1.82
-2.41
3.10
19.39
42.81
67.09
86.74
98.83
103.10
100.97
93.92
82.41
64.33
36.17
-3.22
-50.24
-97.58
-137.11
-162.48
-170.70
-162.63
-136.60
-98.98
-62.69
-37.49
-23.87
-16.31
-10.12
-5.20
-5.80
-17.49
-43.56
-80.86
-120.00
-151.13
-167.85
-169.49
-160.68
-148.73
-140.31
-139.31
-144.75
-151.81
-155.26
-152.16
-142.95
-130.43
-116.97
-105.71
-99.48
-99.16
-103.26
-108.58
-111.24
-107.55
-94.77
-71.54
-38.36
2.69
48.77
96.87
143.98
187.09
223.30
250.10
265.78
269.93
264.12
252.01
238.25
226.90
220.17
217.89
218.15
218.39
216.41
211.19
202.78
191.73
178.67
164.42
150.44
138.83
131.44
129.01
130.78
134.68
138.00
138.11
133.22
123.06
108.56
90.80
70.53
48.18
24.06
-1.43
-28.01
-55.26
-82.23
-107.27
-128.97
-146.08
-157.49
-162.14
-157.44
-141.75
-118.24
-93.34
-71.59
-54.05
-39.06
-24.73
-10.71
1.05
6.90
4.31
-7.50
-26.01
-46.88
-65.10
-76.87
-80.75
-77.97
-71.86
-66.41
-64.93
-66.17
-69.22
-72.14
-72.40
-68.17
-59.38
-47.82
-36.13
-26.45
-19.37
-14.85
-13.00
-15.06
-23.81
-42.21
-70.91
-106.50
-142.27
-170.68
-186.65
-189.32
-181.15
-166.46
-148.94
-129.54
-106.39
-77.02
-40.63
0.73
42.64
80.93
112.86
136.10
147.98
148.64
141.04
128.14
113.75
96.20
74.83
50.83
26.50
4.63
-11.83
-21.65
-25.56
-25.32
-23.00
-19.42
-14.88
-9.43
-2.88
5.35
15.68
28.25
42.85
58.43
73.54
85.80
92.42
91.41
82.59
67.55
49.13
30.53
14.17
1.56
-7.16
-13.02
-17.52
-22.09
-27.81
-35.30
-44.50
-54.75
-64.55
-72.10
-75.89
-74.90
-68.88
-58.33
-44.59
-29.54
-15.26
-3.26
5.62
11.30
14.30
15.56
15.96
15.82
14.84
12.29
8.19
3.14
-1.94
-6.15
-8.80
-9.70
-9.35
-8.87
-9.46
-10.88
-12.50
-14.43
-17.78
-23.78
-32.94
-44.99
-59.07
-73.99
-86.73
-94.37
-95.67
-91.15
-81.84
-68.63
-52.68
-35.44
-18.00
2.12
28.80
64.44
108.38
157.33
206.36
249.71
282.35
287.66
257.39
200.18
136.78
84.36
48.52
26.79
14.42
7.90
6.41
11.27
23.01
38.78
53.10
61.07
60.75
53.12
40.82
25.18
10.00
-1.69
-9.40
-14.82
-19.88
-25.42
-31.23
-36.70
-41.26
-43.44
-42.33
-38.58
-34.09
-30.72
-29.32
-29.66
-30.95
-32.26
-32.35
-30.64
-27.67
-24.76
-23.20
-23.52
-25.51
-28.45
-31.58
-34.03
-35.43
-35.86
-35.64
-34.86
-33.25
-30.33
-25.79
-19.75
-12.76
-5.70
0.57
5.50
8.97
11.25
12.72
13.70
14.27
14.24
13.30
11.16
7.74
3.27
-1.65
-6.27
-9.88
-12.17
-13.36
-14.25
-15.84
-18.98
-23.93
-30.26
-36.92
-42.65
-46.24
-46.87
-44.27
-38.82
-31.65
-24.52
-19.37
-17.73
-20.24
-26.40
-34.91
-44.31
-53.54
-62.07
-69.70
-75.96
-80.10
-80.97
-77.57
-69.64
-57.88
-43.79
-28.96
-14.57
-1.13
11.19
22.30
31.93
39.55
44.65
47.19
47.90
48.11
49.29
52.10
56.35
61.36
66.24
70.22
72.85
74.02
73.76
72.20
68.54
62.35
54.07
44.91
36.24
29.19
24.76
23.75
26.65
31.44
36.08
39.78
43.06
46.82
51.48
56.83
61.77
64.69
60.87
47.27
24.55
-3.59
-33.10
-61.47
-87.90
-112.56
-135.46
-160.03
-187.83
-217.11
-244.08
-266.12
-283.12
-296.49
-307.80
-294.80
-247.26
-173.36
-93.63
-24.45
28.08
64.39
87.30
98.15
101.26
96.23
83.53
66.79
51.78
42.62
39.59
42.04
47.04
52.05
52.63
46.92
37.28
29.66
29.87
40.96
62.92
92.83
126.67
158.19
178.78
181.32
166.39
142.25
119.20
104.15
98.29
99.66
104.02
107.41
105.77
97.51
82.62
62.12
38.09
12.25
-13.03
-35.80
-54.48
-69.40
-81.16
-90.75
-99.54
-108.78
-120.38
-134.29
-147.47
-157.48
-162.33
-159.57
-147.55
-126.43
-90.42
-43.06
0.21
36.82
68.81
95.44
114.92
124.43
121.05
103.48
72.32
32.73
-5.78
-35.32
-51.73
-54.52
-46.85
-33.87
-20.38
-10.33
-4.81
-2.18
-2.04
-5.19
-12.13
-22.29
-33.71
-43.47
-49.46
-50.48
-46.22
-38.56
-30.16
-22.88
-17.43
-13.61
-10.81
-8.74
-7.00
-4.86
-2.02
1.57
5.88
10.76
15.92
21.05
25.74
29.79
33.35
36.66
40.13
44.36
49.85
56.59
63.69
69.24
70.89
66.82
56.92
43.43
30.53
22.97
23.97
33.70
48.93
64.10
73.56
73.72
64.19
47.53
27.84
9.03
-6.39
-17.44
-24.22
-27.03
-26.05
-21.62
-14.70
-7.33
-2.31
-2.35
-8.95
-21.79
-38.78
-56.71
-72.26
-82.65
-86.00
-81.38
-68.90
-50.01
-27.78
-6.63
8.50
13.69
7.41
-8.86
-31.14
-54.26
-73.52
-85.81
-90.04
-86.85
-77.95
-65.49
-51.67
-38.64
-28.36
-22.48
-21.99
-26.77
-35.17
-44.02
-49.02
-45.85
-31.48
-5.29
30.35
70.44
108.64
138.86
156.72
160.46
150.90
130.84
103.96
74.07
44.49
17.84
-3.86
-19.36
-28.36
-31.60
-30.82
-28.27
-25.92
-24.80
-24.75
-24.79
-23.76
-20.98
-16.40
-10.26
-2.59
7.10
19.64
35.53
54.37
74.63
94.02
110.21
121.42
126.69
125.64
118.07
103.73
82.46
54.48
20.62
-17.63
-58.29
-98.87
-136.41
-167.57
-188.86
-197.48
-192.01
-173.08
-143.34
-106.83
-67.94
-30.44
3.25
32.00
55.56
73.96
87.18
95.21
98.40
97.88
95.58
93.63
93.38
94.63
95.55
93.51
86.39
73.58
56.20
36.44
16.63
-1.56
-17.23
-29.82
-38.86
-43.81
-44.47
-41.40
-36.01
-30.10
-25.25
-22.22
-20.84
-20.38
-20.03
-19.43
-18.69
-18.05
-17.45
-16.28
-13.61
-8.67
-1.22
8.25
18.85
29.63
40.00
49.61
57.98
64.03
66.32
63.78
56.39
45.36
32.69
20.41
9.94
1.64
-5.25
-11.89
-19.11
-27.08
-35.66
-44.91
-54.82
-64.96
-74.19
-81.23
-85.09
-85.47
-83.07
-79.66
-77.49
-77.79
-79.65
-79.94
-74.85
-61.33
-37.92
-5.29
33.83
72.89
102.50
115.18
110.61
94.50
73.84
53.79
37.28
25.57
18.64
16.59
17.36
18.90
18.95
15.97
10.40
4.53
1.15
1.87
6.66
13.32
19.41
22.59
21.82
17.84
12.19
5.70
-2.35
-13.71
-29.78
-50.08
-72.33
-93.17
-109.31
-118.75
-121.41
-118.78
-113.00
-105.91
-98.31
-90.28
-81.41
-71.08
-58.79
-44.27
-27.65
-9.43
9.62
28.74
47.13
64.21
79.83
94.08
107.28
119.67
131.37
142.28
151.90
159.14
162.30
159.66
150.07
133.55
111.45
86.01
59.63
33.98
9.71
-13.27
-34.86
-54.18
-69.52
-79.04
-81.68
-77.83
-69.58
-60.16
-52.94
-49.88
-50.95
-54.32
-57.37
-57.75
-54.18
-46.97
-37.86
-29.60
-24.37
-23.27
-26.36
-33.33
-43.67
-56.50
-70.30
-82.95
-91.88
-93.76
-85.43
-65.49
-35.44
0.87
38.48
72.44
98.08
111.41
111.11
99.61
82.82
68.40
64.24
75.83
104.17
144.75
182.67
200.09
186.50
146.48
94.09
42.99
1.12
-28.88
-47.73
-57.97
-61.41
-59.07
-52.25
-44.58
-38.06
-34.37
-33.93
-36.38
-41.77
-49.52
-58.54
-67.52
-75.52
-81.71
-85.78
-88.05
-86.66
-82.26
-76.02
-69.02
-61.90
-55.16
-48.97
-43.27
-37.56
-31.39
-24.87
-17.82
-10.23
-2.60
3.60
6.62
5.37
0.31
-6.92
-14.35
-19.99
-23.00
-23.63
-23.01
-22.25
-22.13
-23.11
-26.06
-31.76
-37.85
-40.38
-34.85
-20.13
-0.20
16.88
25.87
24.91
16.90
9.07
9.01
22.82
51.34
89.38
127.51
155.46
165.09
152.77
119.88
71.62
15.89
-38.35
-82.05
-107.33
-109.31
-88.23
-49.85
-4.16
37.47
66.25
78.71
77.47
69.46
62.30
60.86
66.33
77.26
91.32
106.53
120.85
131.10
132.57
120.14
90.56
45.08
-9.92
-64.87
-110.47
-141.06
-156.04
-158.82
-154.20
-145.77
-134.55
-119.75
-100.65
-78.36
-56.21
-38.56
-28.82
-27.93
-33.98
-43.21
-51.78
-57.10
-58.05
-54.50
-46.29
-33.49
-17.00
0.97
17.64
30.37
37.61
39.37
36.79
31.45
24.01
14.13
1.38
-12.92
-25.88
-34.01
-34.15
-24.22
-3.08
28.18
65.68
103.25
134.81
155.34
162.37
157.02
143.63
128.80
117.63
111.86
109.94
110.02
110.32
109.32
105.89
94.03
72.80
47.31
26.70
11.12
-1.12
-10.74
-17.67
-21.44
-21.38
-16.08
-5.30
9.34
24.82
39.21
51.27
59.98
64.23
62.86
55.48
41.80
21.80
-3.75
-31.98
-59.24
-82.34
-99.38
-110.05
-115.07
-116.33
-116.34
-117.43
-120.45
-125.18
-131.02
-137.35
-143.64
-149.25
-153.64
-156.24
-156.49
-153.47
-146.34
-134.78
-119.12
-100.25
-79.31
-57.47
-35.65
-14.39
6.17
26.04
45.00
62.43
77.49
89.40
97.88
103.43
107.20
110.60
114.64
119.43
124.10
127.16
127.10
122.93
114.49
102.45
87.99
72.43
56.79
41.46
26.07
9.81
-7.96
-27.11
-46.55
-64.57
-79.63
-90.78
-97.66
-99.98
-97.32
-89.53
-77.57
-64.12
-53.16
-48.44
-51.73
-61.83
-75.17
-87.47
-95.69
-98.91
-98.09
-95.03
-91.42
-88.56
-87.38
-89.09
-95.01
-105.84
-120.78
-137.09
-150.58
-157.06
-154.05
-141.89
-124.17
-106.58
-94.45
-90.28
-92.51
-95.85
-93.32
-78.70
-48.39
-3.44
50.27
103.54
146.43
170.91
173.01
153.22
115.46
66.49
12.01
-44.71
-101.70
-156.00
-202.88
-235.78
-249.26
-241.24
-211.40
-164.19
-107.64
-49.26
7.77
64.26
123.89
188.21
254.17
318.59
374.59
413.39
429.18
423.19
401.77
374.90
350.29
331.75
325.14
332.01
348.17
366.50
381.27
388.08
386.83
378.80
332.35
240.41
124.81
17.32
-65.44
-116.67
-151.80
-179.30
-201.39
-217.58
-222.66
-212.63
-189.54
-159.68
-129.05
-103.35
-84.03
-70.63
-63.01
-56.41
-46.84
-33.63
-18.30
-1.93
13.21
27.19
41.32
55.06
69.36
83.81
94.73
96.32
83.76
53.42
7.88
-43.84
-92.23
-128.26
-146.11
-145.41
-130.25
-97.56
-51.51
-10.70
21.13
47.04
67.17
79.80
81.85
70.53
45.25
6.84
-40.27
-87.72
-129.05
-160.19
-178.38
-182.55
-173.69
-155.00
-132.90
-114.23
-103.08
-102.05
-110.36
-122.59
-130.52
-126.58
-107.05
-74.92
-38.18
-5.94
13.62
16.94
6.74
-9.81
-24.91
-33.83
-36.99
-38.55
-43.57
-56.55
-79.73
-112.37
-151.10
-190.37
-223.33
-243.05
-243.82
-222.76
-181.46
-126.02
-65.69
-10.34
32.08
57.47
66.01
61.44
49.48
36.14
26.62
24.72
32.59
50.59
77.20
109.21
142.14
171.37
193.46
207.18
213.62
215.39
215.12
214.42
213.51
211.34
206.21
196.54
181.37
160.65
135.33
107.15
78.62
52.67
31.98
18.42
12.80
14.78
23.11
35.93
50.61
64.63
76.19
84.52
90.13
94.68
100.27
108.43
119.30
130.60
139.69
144.38
143.14
134.84
118.78
95.06
65.16
32.22
-1.03
-30.46
-51.77
-62.80
-65.55
-65.90
-71.23
-87.39
-116.42
-158.60
-209.00
-259.60
-303.50
-338.34
-366.11
-389.98
-411.00
-426.98
-437.41
-439.84
-431.26
-410.35
-379.00
-341.18
-300.39
-258.78
-195.39
-108.53
-14.22
66.46
122.58
155.24
171.55
179.48
185.34
192.72
198.25
198.19
191.06
177.12
156.92
131.35
102.21
73.20
50.65
36.46
30.43
31.91
40.03
53.32
69.65
86.41
100.78
110.75
113.30
108.09
99.08
92.27
92.57
101.86
118.82
139.93
161.31
179.33
189.97
193.52
192.98
192.14
193.71
198.08
202.88
203.51
194.17
170.63
132.87
84.88
33.44
-14.04
-51.76
-76.91
-89.97
-94.09
-93.57
-91.93
-91.69
-94.13
-99.61
-107.94
-118.60
-130.86
-143.80
-156.30
-166.90
-174.42
-178.10
-177.66
-173.18
-164.94
-153.55
-140.16
-126.50
-114.67
-106.56
-103.12
-103.74
-106.57
-109.42
-110.91
-111.23
-111.88
-114.44
-119.28
-124.98
-128.93
-129.04
-125.59
-121.91
-123.20
-133.84
-154.51
-180.75
-203.86
-213.92
-203.18
-168.33
-110.61
-34.75
52.57
143.42
228.73
298.51
343.09
355.56
334.51
285.40
219.46
149.91
87.44
37.05
-2.30
-35.16
-65.88
-95.96
-123.66
-145.60
-158.90
-162.77
-158.57
-148.91
-136.48
-123.30
-110.90
-100.55
-93.46
-90.34
-90.94
-93.82
-96.42
-95.76
-89.07
-74.58
-52.06
-23.07
9.63
42.96
74.54
103.22
128.66
150.50
167.61
178.20
180.64
174.47
161.09
143.35
124.55
107.14
91.94
78.31
64.93
50.88
36.41
22.93
12.42
6.62
6.32
11.14
19.85
30.89
42.96
55.13
66.63
76.45
83.27
85.76
83.33
76.68
67.85
59.54
54.03
52.28
53.66
56.51
59.08
60.38
60.45
60.02
59.80
59.91
59.87
58.90
56.53
52.86
48.50
44.19
40.34
36.79
32.95
28.08
21.61
13.41
3.76
-6.70
-17.09
-26.47
-33.95
-38.91
-41.16
-41.11
-39.76
-38.45
-38.57
-41.05
-45.98
-52.36
-58.31
-61.46
-59.76
-52.09
-38.66
-21.06
-1.69
16.79
32.26
43.65
51.01
55.36
58.14
60.66
63.71
67.44
71.46
75.12
77.85
79.27
79.32
78.17
76.12
73.51
70.66
67.75
64.85
61.98
59.18
56.54
54.17
52.02
49.83
47.18
43.74
39.52
34.93
30.60
27.05
24.32
21.95
19.10
14.98
9.19
1.94
-6.03
-13.75
-20.35
-25.37
-28.89
-31.59
-34.52
-38.82
-45.26
-53.88
-63.84
-73.44
-80.70
-83.88
-81.98
-75.21
-65.08
-53.85
-44.02
-37.53
-35.31
-36.95
-40.83
-44.68
-46.74
-46.81
-46.44
-48.21
-54.29
-65.00
-78.40
-91.08
-99.37
-101.25
-96.89
-87.74
-75.02
-58.89
-39.07
-16.02
8.00
30.20
47.48
57.77
61.21
60.27
58.39
58.01
59.85
63.03
68.22
76.05
86.47
98.78
112.22
126.08
139.21
150.81
160.22
170.43
183.62
199.27
214.04
224.01
226.14
218.72
202.91
182.07
165.04
159.00
165.79
181.66
200.80
218.17
230.24
236.48
212.81
151.13
64.32
-23.32
-95.06
-147.02
-179.94
-202.48
-218.87
-230.87
-235.51
-231.88
-221.46
-208.90
-198.30
-191.31
-187.97
-186.34
-184.69
-178.90
-166.96
-150.27
-132.75
-117.75
-106.62
-99.37
-94.61
-91.18
-86.58
-79.52
-70.60
-61.72
-54.34
-48.79
-44.92
-42.01
-39.72
-37.06
-33.56
-29.60
-26.24
-24.37
-24.25
-25.59
-27.40
-28.55
-27.77
-24.50
-19.13
-12.87
-6.98
-2.30
0.98
3.23
4.93
6.39
7.61
8.35
8.32
7.41
5.74
3.74
1.88
0.64
0.27
0.74
1.74
2.88
3.85
4.55
5.12
5.77
6.61
7.62
8.65
9.54
10.30
11.06
11.94
12.91
13.72
13.97
13.33
11.68
9.18
6.14
2.89
-0.37
-3.62
-6.97
-10.61
-14.67
-19.18
-23.81
-27.91
-30.53
-30.68
-27.76
-21.77
-13.39
-3.72
6.11
15.31
23.59
30.97
37.57
43.25
47.64
50.22
50.65
48.86
45.23
40.33
34.88
29.44
24.43
20.11
16.59
13.92
12.02
10.68
9.52
8.08
5.96
2.82
-1.43
-6.72
-12.73
-19.00
-24.99
-30.22
-34.41
-37.54
-39.83
-41.57
-43.02
-44.23
-45.17
-45.73
-45.86
-45.53
-44.66
-43.01
-40.14
-35.66
-29.31
-21.27
-12.12
-2.74
5.95
13.32
19.11
23.47
26.74
29.24
31.13
32.37
32.78
32.18
30.52
27.84
24.33
20.19
15.70
11.14
6.82
3.07
0.10
-2.04
-3.54
-4.73
-6.04
-7.79
-10.12
-12.86
-15.64
-17.98
-19.42
-19.64
-18.58
-16.47
-13.78
-11.09
-9.00
-7.92
-7.94
-8.74
-9.66
-9.92
-8.84
-6.15
-2.03
2.95
8.06
12.67
16.37
19.01
20.63
21.30
21.13
20.25
18.80
16.94
14.83
12.54
10.07
7.35
4.28
0.83
-2.92
-6.75
-10.31
-13.16
-14.92
-15.33
-14.41
-12.47
-9.98
-7.40
-5.07
-3.12
-1.52
-0.25
0.70
1.27
1.36
0.91
-0.10
-1.68
-3.70
-5.94
-8.02
-9.48
-9.89
-9.06
-7.05
-4.24
-1.14
1.77
4.19
5.99
7.17
7.78
7.84
7.44
6.77
6.08
5.64
5.61
5.96
6.45
6.81
6.88
6.66
6.35
6.12
6.03
5.99
5.85
5.45
4.72
3.65
2.25
0.55
-1.39
-3.46
-5.54
-7.55
-9.55
-11.67
-13.97
-16.35
-18.44
-19.78
-20.03
-19.07
-17.07
-14.41
-11.51
-8.71
-6.19
-4.05
-2.31
-0.93
0.13
0.97
1.66
2.19
2.53
2.63
2.47
1.97
1.16
0.13
-0.97
-1.99
-3.01
-4.15
-5.44
-6.90
-8.50
-10.18
-11.88
-13.69
-15.84
-18.91
-23.15
-28.31
-33.85
-39.26
-44.31
-49.06
-53.76
-58.67
-64.29
-70.51
-76.52
-81.30
-84.09
-84.61
-82.97
-79.61
-75.15
-70.69
-66.54
-61.93
-55.49
-45.97
-32.54
-14.86
6.98
35.25
67.56
97.92
120.10
131.03
131.23
123.37
110.96
97.53
86.11
78.24
74.61
74.96
77.84
80.77
81.13
77.25
68.82
56.69
41.87
25.89
10.78
-1.29
-8.42
-9.30
-3.92
6.09
17.73
27.56
33.35
34.69
32.62
28.62
23.92
19.36
15.65
13.20
12.00
11.54
10.82
8.74
4.58
-1.47
-8.61
-14.73
-18.23
-18.40
-15.50
-10.27
-3.48
4.28
12.54
20.76
28.32
34.50
38.83
41.25
41.93
41.09
38.82
35.08
29.77
23.02
15.26
7.50
1.41
-0.98
2.12
11.41
25.86
42.70
58.01
67.82
69.42
62.06
46.96
26.76
4.69
-16.14
-33.10
-44.26
-48.56
-45.85
-37.02
-23.87
-8.82
5.54
16.99
24.19
26.94
26.19
23.62
21.04
19.69
19.81
20.66
20.94
19.38
15.11
7.77
-2.69
-16.14
-32.11
-49.39
-65.89
-78.82
-85.59
-84.77
-76.74
-63.46
-47.67
-32.00
-18.55
-9.14
-5.63
-9.93
-23.35
-45.47
-73.58
-103.04
-128.76
-146.94
-156.36
-158.32
-155.60
-150.85
-145.44
-139.13
-130.67
-118.76
-102.80
-83.19
-61.19
-38.42
-16.61
2.56
17.48
26.75
29.64
26.47
18.78
9.15
0.44
-5.02
-6.04
-2.65
4.20
13.27
23.40
33.72
43.55
52.35
59.71
65.46
69.70
72.71
74.81
76.10
76.46
75.61
73.40
69.83
65.10
59.48
53.14
46.13
38.43
30.11
21.34
12.38
3.49
-5.19
-13.55
-21.45
-28.61
-34.65
-39.27
-42.47
-44.64
-46.47
-48.70
-51.79
-55.71
-59.93
-63.61
-65.85
-66.02
-63.86
-59.58
-53.64
-46.73
-39.53
-32.57
-26.12
-20.13
-14.31
-8.33
-2.07
4.21
9.86
14.04
15.97
15.29
12.07
6.80
0.09
-7.51
-15.69
-24.43
-33.89
-44.32
-55.88
-68.49
-81.76
-94.98
-107.42
-118.57
-128.38
-137.24
-145.74
-154.37
-163.26
-172.06
-179.95
-185.68
-187.73
-184.56
-174.95
-158.56
-136.09
-109.30
-80.51
-51.87
-24.78
0.24
23.37
44.97
65.18
83.75
100.20
114.04
125.01
133.23
139.11
143.24
146.26
148.65
150.68
152.48
154.12
155.72
157.46
159.40
161.36
162.79
163.04
161.64
158.58
154.30
149.40
144.22
138.56
131.94
123.98
114.94
105.81
98.02
92.72
90.13
89.42
89.06
87.66
84.60
80.30
75.74
71.87
68.95
66.46
63.42
58.91
52.73
45.30
37.59
30.62
25.27
22.06
21.23
22.66
25.73
29.38
32.12
32.61
30.04
24.47
16.59
7.21
-3.35
-15.44
-29.74
-46.41
-64.53
-82.12
-96.81
-106.98
-112.37
-114.11
-113.97
-113.47
-113.32
-113.51
-113.86
-114.52
-116.13
-119.28
-123.89
-128.86
-132.21
-131.82
-126.33
-115.75
-101.45
-85.64
-70.56
-57.72
-47.58
-39.69
-33.08
-26.70
-19.70
-11.43
-1.35
10.93
25.53
42.05
59.52
76.53
91.61
103.77
112.84
119.54
125.15
131.01
137.90
145.82
154.14
161.90
168.34
173.10
176.25
178.05
178.63
177.73
174.91
169.80
162.58
154.06
145.36
137.31
129.84
121.83
111.47
97.07
77.95
54.79
29.52
4.43
-18.65
-38.96
-56.82
-73.28
-89.48
-106.14
-123.19
-139.75
-154.41
-165.66
-172.31
-173.70
-169.75
-160.74
-147.18
-129.87
-109.87
-88.65
-67.96
-49.67
-35.37
-26.15
-22.30
-23.19
-27.20
-31.92
-34.63
-33.08
-26.33
-15.27
-2.61
8.00
13.25
11.53
3.68
-7.31
-17.54
-23.91
-25.47
-23.71
-21.76
-22.61
-27.67
-36.05
-45.10
-51.78
-53.94
-50.94
-43.59
-33.71
-23.88
-17.19
-16.62
-23.99
-38.53
-56.30
-70.86
-75.48
-65.85
-41.91
-7.89
29.54
63.78
90.38
107.61
115.77
116.06
109.83
98.79
85.40
73.23
66.40
68.42
81.05
103.33
131.32
158.61
177.72
182.16
168.74
139.23
100.35
61.67
32.02
16.11
12.99
17.18
21.90
22.60
18.79
13.18
9.11
7.92
8.06
6.28
-0.18
-11.89
-26.90
-41.69
-53.08
-59.58
-61.82
-61.96
-62.65
-66.16
-73.82
-85.81
-100.71
-116.06
-128.89
-136.45
-136.65
-128.54
-112.65
-91.00
-66.70
-42.48
-20.75
-3.28
8.70
14.77
15.54
12.37
6.94
1.00
-2.75
-2.10
3.94
14.31
26.50
37.63
45.14
47.29
43.51
36.11
28.56
24.53
26.22
34.47
49.08
68.82
91.62
106.13
103.48
82.25
50.35
17.60
-10.25
-31.94
-48.27
-59.98
-66.99
-66.64
-58.19
-42.29
-22.26
-2.48
13.65
24.73
31.29
35.02
39.13
43.47
48.35
52.76
55.29
55.13
52.33
47.34
40.54
32.77
24.64
17.04
10.35
4.89
1.11
-0.76
-1.15
-1.26
-2.35
-5.57
-11.10
-18.68
-27.41
-36.04
-43.50
-49.36
-53.89
-57.77
-61.82
-66.48
-72.12
-78.91
-86.68
-94.83
-102.29
-107.77
-110.12
-109.00
-104.99
-99.57
-94.34
-90.35
-87.58
-85.17
-82.04
-77.52
-71.55
-64.40
-56.28
-47.01
-36.19
-23.79
-10.49
2.23
12.64
19.49
22.57
22.72
21.33
19.67
18.17
16.40
13.35
8.07
0.38
-8.90
-18.05
-25.10
-28.61
-28.21
-24.85
-20.33
-16.64
-15.07
-15.76
-17.67
-18.88
-17.06
-10.04
3.64
23.61
46.95
68.14
80.52
79.16
63.67
39.40
15.76
2.24
4.03
19.84
42.99
65.21
80.73
88.32
90.53
91.00
91.81
92.58
91.51
87.15
79.65
70.68
62.25
55.56
50.36
45.28
38.68
29.64
18.47
6.67
-3.62
-10.49
-13.01
-11.59
-7.79
-3.70
-1.07
-0.74
-2.60
-5.80
-9.42
-12.83
-15.83
-18.50
-20.96
-23.22
-25.22
-26.95
-28.48
-29.97
-31.51
-33.04
-34.41
-35.43
-36.05
-36.38
-36.62
-37.04
-37.83
-39.06
-40.69
-42.56
-44.39
-45.80
-46.34
-45.53
-43.03
-38.70
-32.64
-25.18
-16.88
-8.42
-0.63
5.67
9.83
11.62
11.33
9.69
7.56
5.59
3.99
2.49
0.64
-1.87
-4.99
-8.31
-11.21
-13.11
-13.65
-12.68
-10.37
-7.09
-3.46
-0.18
2.08
2.97
2.52
1.15
-0.56
-2.15
-3.42
-4.43
-5.31
-6.10
-6.75
-7.18
-7.40
-7.40
-7.13
-6.33
-4.69
-2.03
1.48
5.24
8.42
10.34
10.75
9.94
8.63
7.57
7.27
7.79
8.83
9.86
10.41
10.21
9.26
7.82
6.22
4.75
3.57
2.79
2.51
2.92
4.17
6.25
8.85
11.44
13.43
14.42
14.37
13.53
12.27
10.87
9.36
7.64
5.60
3.32
1.07
-0.80
-2.02
-2.54
-2.53
-2.21
-1.76
-1.28
-0.82
-0.44
-0.23
-0.21
-0.29
-0.25
0.13
0.93
1.95
2.85
3.28
3.09
2.35
1.28
0.03
-1.43
-3.21
-5.42
-8.02
-10.77
-13.36
-15.54
-17.19
-18.30
-18.94
-19.10
-18.82
-18.13
-17.19
-16.27
-15.67
-15.53
-15.67
-15.58
-14.64
-12.38
-8.71
-4.09
0.73
4.95
8.07
9.97
10.90
11.19
11.04
10.48
9.38
7.66
5.39
2.77
0.07
-2.47
-4.65
-6.36
-7.55
-8.24
-8.62
-9.07
-10.08
-12.09
-15.19
-19.04
-22.92
-26.06
-27.90
-28.44
-28.15
-27.80
-28.11
-29.46
-31.75
-34.47
-36.79
-37.83
-36.77
-33.06
-26.61
-17.79
-7.44
3.38
13.60
22.35
29.05
33.42
35.45
35.31
33.36
30.13
26.22
22.21
18.55
15.56
13.60
13.05
14.20
17.09
21.17
25.52
29.11
31.41
32.62
33.60
35.35
38.42
42.61
47.08
50.79
52.94
53.18
51.53
48.17
43.30
37.15
30.09
22.60
15.28
8.61
2.85
-1.93
-5.81
-8.85
-11.04
-12.35
-12.80
-12.53
-11.85
-11.19
-10.88
-11.19
-12.24
-14.10
-16.71
-19.71
-22.39
-23.82
-23.40
-21.27
-18.52
-16.68
-16.88
-19.13
-22.18
-24.20
-23.78
-20.63
-15.65
-10.18
-5.14
-0.65
3.81
8.88
14.86
21.59
28.60
35.26
40.87
44.82
46.69
46.36
44.22
41.03
37.62
34.50
31.58
28.39
24.55
19.90
14.57
8.75
2.57
-4.05
-11.24
-18.98
-26.84
-33.80
-38.88
-41.70
-42.53
-42.09
-41.21
-40.57
-40.46
-40.77
-40.52
-39.00
-36.33
-33.24
-30.46
-28.21
-26.18
-23.68
-19.93
-13.49
-3.94
7.63
19.20
29.32
37.71
45.14
52.75
61.27
71.90
84.53
97.18
106.86
111.18
109.03
100.56
87.13
63.59
31.75
0.55
-20.32
-28.02
-27.45
-26.95
-33.54
-49.91
-72.93
-96.00
-111.39
-113.33
-99.60
-71.44
-32.92
10.38
53.15
88.76
112.49
122.02
117.01
99.32
72.76
42.79
15.35
-4.25
-12.73
-9.04
4.62
22.92
39.68
50.52
54.33
52.69
47.98
41.60
34.19
26.04
17.96
11.54
8.32
8.39
9.50
8.02
1.13
-10.73
-23.44
-31.00
-28.56
-14.99
6.29
28.75
45.46
52.12
48.73
39.38
30.14
26.44
30.86
42.29
56.95
70.38
79.60
84.01
84.83
83.65
81.06
76.21
67.55
54.07
36.22
16.11
-3.28
-19.36
-31.02
-38.98
-45.17
-51.47
-58.60
-65.66
-70.69
-71.91
-68.88
-62.91
-56.51
-52.32
-51.76
-54.51
-58.78
-62.33
-63.62
-62.51
-60.20
-58.41
-58.49
-60.51
-63.23
-64.68
-63.03
-57.38
-48.10
-36.53
-24.68
-15.06
-10.45
-13.48
-25.49
-45.15
-67.87
-86.71
-95.14
-90.16
-74.12
-53.92
-37.76
-31.24
-35.04
-45.30
-56.27
-63.61
-66.10
-65.27
-63.42
-61.79
-59.88
-56.32
-50.30
-42.42
-34.54
-28.80
-26.30
-26.39
-26.77
-24.30
-16.35
-1.97
17.54
38.92
58.17
72.11
79.60
81.85
81.73
82.24
85.15
90.37
96.27
100.82
102.60
101.35
97.61
92.14
85.33
77.04
66.96
54.94
41.29
26.79
12.43
-0.87
-12.44
-21.99
-29.54
-35.29
-39.46
-42.26
-43.78
-44.12
-43.45
-42.06
-40.29
-38.50
-36.88
-35.52
-34.44
-33.62
-33.13
-33.12
-33.88
-35.88
-39.74
-46.06
-55.11
-66.42
-78.63
-89.75
-97.88
-101.84
-101.71
-98.58
-93.96
-89.08
-84.57
-80.62
-77.42
-75.48
-75.39
-77.35
-80.73
-83.95
-85.01
-82.18
-74.69
-62.99
-48.42
-32.70
-17.27
-2.98
9.85
21.21
31.08
39.29
45.54
49.60
51.42
51.31
49.84
47.74
45.67
44.13
43.32
43.13
43.26
43.28
42.80
41.56
39.55
36.91
33.90
30.75
27.58
24.48
21.49
18.69
16.17
13.94
11.92
10.05
8.41
7.35
7.47
9.38
13.37
19.25
26.32
33.61
40.22
45.54
49.29
51.39
51.74
50.21
46.72
41.38
34.66
27.29
20.10
13.82
8.97
5.68
3.79
2.79
1.85
-0.04
-3.89
-10.29
-19.06
-29.19
-39.01
-46.88
-51.74
-53.59
-53.38
-52.50
-52.07
-52.43
-52.96
-52.49
-49.80
-44.14
-35.53
-24.64
-12.55
-0.44
10.67
20.12
27.51
32.67
35.54
36.04
34.14
29.96
23.91
16.62
8.94
1.62
-4.79
-10.02
-14.01
-16.80
-18.39
-18.80
-18.07
-16.34
-13.81
-10.73
-7.32
-3.81
-0.46
2.51
5.00
7.07
8.87
10.59
12.18
13.47
14.28
14.69
15.20
16.56
19.48
24.20
30.28
36.69
42.18
45.69
46.60
44.83
40.74
34.89
27.94
20.63
13.68
7.80
3.38
0.32
-2.15
-5.28
-10.35
-18.03
-27.98
-38.82
-48.63
-55.69
-59.05
-58.74
-55.40
-49.74
-41.96
-31.63
-18.14
-1.39
17.56
36.35
51.99
61.92
65.14
62.70
57.30
52.00
48.92
48.47
49.42
49.88
48.35
44.42
38.64
31.96
24.94
17.49
9.01
-1.02
-12.53
-24.60
-35.59
-43.73
-47.66
-47.01
-42.35
-34.99
-26.49
-18.06
-10.32
-3.38
2.89
8.47
13.12
16.49
18.36
18.88
18.51
17.73
16.81
15.70
14.21
12.36
10.59
9.70
10.49
13.39
18.20
24.24
30.67
36.80
42.27
46.92
50.58
53.00
53.78
52.59
49.29
44.07
37.47
30.21
23.05
16.55
10.99
6.32
2.27
-1.47
-5.08
-8.56
-11.73
-14.45
-16.65
-18.39
-19.81
-21.04
-22.13
-23.13
-24.09
-25.17
-26.55
-28.34
-30.40
-32.32
-33.42
-33.05
-30.75
-26.53
-20.78
-14.21
-7.51
-1.28
4.15
8.62
12.02
14.30
15.45
15.60
15.04
14.21
13.54
13.32
13.66
14.49
15.55
16.55
17.24
17.47
17.24
16.76
16.28
16.02
16.04
16.17
16.12
15.63
14.59
13.14
11.53
9.92
8.29
6.34
3.69
0.13
-4.26
-8.99
-13.39
-16.84
-19.09
-20.25
-20.77
-21.12
-21.61
-22.23
-22.75
-22.90
-22.52
-21.62
-20.33
-18.74
-16.85
-14.56
-11.73
-8.29
-4.24
0.33
5.26
10.28
15.08
19.32
22.65
24.86
25.90
25.88
25.06
23.68
21.86
19.60
16.79
13.36
9.30
4.72
-0.24
-5.39
-10.49
-15.20
-19.08
-21.71
-22.79
-22.35
-20.75
-18.57
-16.37
-14.55
-13.22
-12.34
-11.77
-11.39
-11.13
-10.86
-10.37
-9.39
-7.69
-5.21
-2.03
1.63
5.51
9.38
13.13
16.72
20.14
23.34
26.26
28.77
30.75
32.11
32.77
32.70
31.89
30.29
27.85
24.52
20.24
15.11
9.42
3.70
-1.35
-5.09
-7.21
-7.86
-7.66
-7.41
-7.76
-9.00
-10.91
-12.99
-14.70
-15.72
-16.06
-15.96
-15.80
-15.97
-16.61
-17.62
-18.69
-19.46
-19.65
-19.16
-18.11
-16.84
-15.77
-15.22
-15.22
-15.54
-15.76
-15.45
-14.32
-12.28
-9.70
-7.26
-5.58
-4.90
-4.94
-4.94
-3.86
-0.79
5.02
13.39
23.23
33.20
42.07
48.95
53.17
54.33
52.07
46.63
37.71
24.93
9.07
-7.27
-20.32
-26.51
-23.38
-10.66
10.87
37.97
65.93
90.28
107.47
114.64
110.60
97.50
81.29
71.47
74.54
90.17
111.47
128.16
131.06
116.79
89.40
49.29
6.82
-26.03
-45.75
-57.71
-67.59
-76.33
-82.22
-82.56
-77.64
-69.41
-62.17
-60.36
-65.83
-75.21
-84.41
-90.06
-90.36
-85.36
-75.33
-62.26
-49.01
-37.66
-28.67
-21.68
-16.09
-11.40
-7.66
-4.55
-2.38
-1.64
-2.09
-2.62
-2.28
-0.79
1.35
2.95
3.06
0.72
-4.61
-12.72
-22.52
-32.62
-41.59
-48.17
-51.55
-51.38
-48.04
-42.46
-35.82
-29.18
-23.29
-18.44
-14.48
-11.00
-7.61
-4.16
-0.76
2.25
4.55
5.82
6.09
5.73
5.28
5.23
5.76
6.82
8.12
9.43
10.49
11.26
11.92
12.82
14.30
16.46
19.13
21.83
24.03
24.94
24.16
21.89
19.04
16.80
16.26
18.21
22.73
29.38
36.52
42.42
46.16
48.01
48.85
49.54
50.71
52.14
53.11
51.14
44.25
32.50
18.25
4.64
-6.07
-12.69
-15.96
-17.21
-20.22
-27.89
-40.29
-54.71
-68.20
-79.41
-88.14
-95.89
-103.87
-115.99
-135.35
-162.37
-194.56
-229.00
-263.85
-297.16
-327.98
-334.36
-301.96
-235.01
-154.48
-80.14
-20.13
22.84
58.65
92.94
127.24
157.08
177.59
185.11
180.78
168.81
154.32
142.65
136.84
138.62
145.89
155.67
166.28
178.05
191.30
204.83
216.96
225.20
228.45
225.51
216.42
202.50
185.97
168.20
149.10
128.12
104.32
77.59
47.86
15.76
-17.10
-47.96
-73.84
-92.71
-103.97
-109.50
-112.93
-118.68
-129.90
-147.31
-169.13
-192.39
-214.36
-233.05
-247.52
-257.35
-261.72
-258.97
-247.20
-225.23
-193.80
-155.91
-115.89
-78.58
-48.37
-27.64
-15.63
-9.14
-4.67
-0.34
3.46
6.05
8.22
12.64
23.34
43.34
71.46
101.16
123.51
127.56
110.67
83.64
63.53
62.89
84.94
124.60
172.49
218.66
257.62
285.02
296.67
289.59
263.74
223.02
174.34
125.05
80.76
43.80
15.63
-3.49
-15.64
-24.55
-34.16
-47.49
-65.62
-87.19
-108.75
-125.99
-135.86
-138.05
-134.67
-128.80
-122.91
-118.14
-114.16
-110.00
-104.84
-98.66
-92.21
-86.30
-81.28
-76.89
-72.65
-68.21
-63.60
-59.10
-55.08
-51.79
-49.26
-47.40
-46.13
-45.41
-45.04
-44.65
-43.76
-42.10
-39.87
-37.78
-36.71
-37.31
-39.58
-42.89
-46.23
-48.77
-50.14
-50.43
-49.85
-48.51
-46.33
-43.30
-39.66
-35.98
-32.86
-30.49
-28.41
-25.53
-20.62
-12.86
-2.30
10.03
22.43
33.05
40.55
44.40
45.04
43.61
41.56
39.99
39.39
39.51
39.73
39.59
39.18
39.22
40.70
44.22
49.56
55.61
60.82
63.84
64.04
61.63
57.32
51.86
45.72
39.00
31.73
24.15
16.72
10.00
4.20
-0.93
-6.00
-11.48
-17.20
-22.18
-24.87
-23.80
-18.27
-8.65
3.72
17.05
29.60
40.14
48.06
53.32
56.22
57.30
57.06
55.81
53.60
50.22
45.43
39.26
32.24
25.25
19.18
14.40
10.50
6.43
1.11
-6.02
-14.52
-23.19
-30.52
-35.22
-36.52
-34.10
-27.97
-18.52
-7.05
4.16
12.21
14.78
11.41
4.02
-3.67
-7.76
-5.81
2.19
14.19
27.18
38.41
46.08
49.36
48.01
42.29
33.02
21.54
9.53
-1.67
-11.32
-19.24
-25.27
-28.70
-28.42
-23.37
-13.42
0.22
15.15
28.43
37.32
39.34
32.36
14.80
-13.52
-50.26
-89.75
-123.63
-143.28
-143.26
-124.29
-93.66
-62.66
-42.00
-37.31
-47.18
-64.51
-80.36
-87.95
-84.94
-73.09
-56.06
-37.07
-17.94
0.43
16.90
29.29
34.91
32.05
21.31
5.97
-9.09
-19.14
-21.51
-16.68
-7.95
0.10
3.64
1.26
-5.40
-12.41
-15.31
-10.79
2.25
22.80
48.56
76.49
102.84
122.88
131.33
124.09
100.78
66.30
30.29
3.75
-5.58
3.27
24.23
47.32
63.46
68.12
62.12
49.56
34.74
19.93
5.33
-9.55
-24.37
-37.59
-47.24
-52.40
-54.01
-54.56
-57.03
-63.24
-72.72
-82.52
-88.12
-85.39
-72.96
-53.57
-33.59
-20.33
-18.17
-25.80
-36.19
-39.73
-29.00
-2.63
33.99
71.47
100.89
117.52
121.71
117.15
107.79
95.78
81.23
63.53
43.05
21.66
2.26
-12.68
-22.32
-27.88
-31.86
-36.78
-43.99
-53.06
-62.10
-68.50
-70.10
-66.27
-58.54
-50.25
-45.28
-46.06
-51.86
-58.51
-59.81
-50.32
-28.15
3.86
39.07
69.85
90.65
99.84
99.63
94.31
88.09
83.57
81.44
81.02
81.21
81.01
79.75
76.99
72.28
65.24
55.82
44.57
32.82
22.32
14.48
9.55
6.38
2.92
-2.57
-10.33
-18.67
-24.58
-25.12
-18.80
-6.38
9.49
25.36
38.35
47.19
52.31
55.38
58.30
62.32
67.66
73.54
78.72
82.02
82.82
81.07
77.15
71.62
65.35
59.51
55.40
53.71
53.68
52.96
48.37
37.66
21.02
1.43
-16.66
-29.48
-35.78
-37.23
-37.26
-39.16
-44.68
-53.82
-65.48
-78.35
-91.19
-102.58
-110.72
-113.58
-109.79
-99.44
-84.36
-67.57
-52.29
-40.68
-33.33
-29.25
-26.42
-22.59
-16.23
-7.28
2.53
10.31
13.30
10.52
3.66
-3.28
-5.79
-1.02
10.57
25.30
37.89
43.93
41.72
32.75
20.58
8.93
0.04
-5.87
-10.09
-14.14
-18.62
-22.73
-24.55
-22.03
-13.93
-0.29
17.61
37.41
55.87
69.28
74.24
68.83
53.53
31.54
7.70
-13.31
-28.89
-39.34
-47.28
-55.88
-67.07
-80.54
-94.15
-105.08
-111.16
-111.66
-107.21
-99.30
-89.47
-78.85
-67.86
-56.52
-44.82
-33.19
-22.42
-13.17
-5.54
1.01
7.10
12.88
17.76
20.96
22.41
23.52
26.98
35.63
50.93
71.89
95.15
116.15
130.75
136.60
133.54
123.17
107.98
90.45
72.61
55.84
41.03
28.77
19.43
13.19
9.88
8.92
9.49
10.81
12.30
13.51
13.94
12.75
9.03
2.32
-6.70
-15.95
-22.46
-23.58
-18.15
-7.07
7.02
20.90
31.97
39.02
42.17
42.26
40.21
36.66
32.01
26.72
21.40
16.75
13.30
10.99
9.08
6.45
2.18
-3.82
-10.39
-15.31
-16.26
-12.04
-3.42
6.68
14.26
15.75
9.44
-3.99
-21.91
-41.06
-58.71
-73.36
-84.79
-93.61
-100.75
-107.19
-113.68
-120.57
-127.62
-133.85
-137.75
-137.81
-132.98
-123.10
-108.82
-91.31
-71.96
-52.03
-32.45
-13.76
3.78
19.85
33.61
43.50
47.67
45.01
36.24
24.19
13.09
6.86
7.43
14.10
24.09
34.12
41.81
46.36
48.15
47.81
45.53
41.03
33.97
24.59
14.02
3.97
-3.77
-7.99
-8.35
-5.46
-0.41
5.68
12.09
18.37
23.87
27.41
27.38
22.59
13.26
1.51
-9.06
-14.82
-13.67
-6.02
5.38
16.53
23.72
24.64
18.88
7.60
-7.06
-22.72
-37.24
-49.10
-57.52
-62.52
-64.71
-65.07
-64.69
-64.37
-64.25
-63.62
-61.04
-54.94
-44.49
-30.15
-13.72
2.29
15.61
25.07
30.89
34.37
37.28
41.08
46.45
53.19
60.35
66.63
70.85
72.27
70.86
67.12
61.77
55.39
48.30
40.76
33.33
27.06
23.14
22.16
23.38
24.57
22.76
15.63
2.93
-12.83
-27.14
-35.21
-33.92
-23.01
-4.82
17.04
39.27
59.94
78.40
94.46
107.61
116.81
121.02
119.97
114.55
106.67
98.38
91.04
84.88
79.17
72.97
65.79
58.01
50.52
44.12
38.91
34.25
29.28
23.77
18.64
15.77
17.04
23.23
33.37
44.97
55.09
61.72
64.49
64.60
63.62
62.58
61.39
59.15
54.86
48.06
38.64
26.31
10.64
-8.13
-27.61
-42.81
-47.37
-36.56
-10.59
24.17
56.99
77.23
79.02
63.55
37.75
10.36
-12.17
-27.82
-38.25
-46.50
-54.57
-62.56
-69.19
-72.95
-73.09
-69.87
-64.59
-58.92
-54.50
-52.35
-52.81
-55.59
-60.08
-65.73
-72.23
-79.36
-86.63
-93.38
-99.23
-104.89
-112.33
-123.95
-141.23
-163.29
-186.42
-205.18
-214.76
-213.23
-202.60
-187.76
-174.08
-165.14
-161.45
-160.68
-159.04
-152.92
-140.08
-120.41
-95.25
-66.82
-38.08
-12.48
6.69
17.02
17.62
9.61
-5.21
-23.64
-41.89
-57.02
-68.04
-75.75
-81.81
-87.59
-93.23
-99.56
-105.58
-108.96
-107.98
-103.14
-96.48
-90.07
-84.68
-78.85
-73.26
-66.85
-57.12
-42.39
-23.51
-3.45
14.33
26.48
30.68
20.98
-4.34
-40.54
-78.51
-108.96
-125.60
-127.42
-119.65
-88.96
-42.31
0.18
23.11
27.94
26.38
28.75
38.58
48.49
58.57
66.15
72.09
80.38
94.35
113.70
135.30
155.39
171.10
182.95
189.38
190.52
188.15
183.88
177.86
169.54
158.73
145.68
131.19
112.59
87.63
56.06
19.72
-18.37
-54.58
-85.40
-108.20
-121.32
-125.87
-123.16
-113.78
-97.93
-76.40
-51.01
-24.35
0.88
22.93
40.80
55.25
68.39
82.47
98.32
114.41
127.03
131.63
124.87
106.15
78.30
46.71
17.54
-4.34
-16.41
-18.62
-12.56
-0.62
14.40
29.27
40.31
43.86
37.19
19.56
-7.31
-39.64
-72.81
-102.72
-126.75
-143.88
-153.97
-156.89
-152.07
-138.82
-117.14
-88.62
-56.42
-24.56
3.33
25.14
40.55
50.68
57.10
61.19
63.78
65.31
66.07
66.33
66.29
65.99
65.50
65.07
65.34
67.04
70.38
74.22
75.79
71.48
58.62
37.27
11.12
-13.54
-30.26
-35.19
-28.55
-14.21
2.58
17.75
30.09
41.24
54.10
70.64
90.45
110.64
127.07
136.19
136.56
129.29
117.35
104.27
92.65
83.38
75.69
67.90
58.26
45.25
27.96
6.29
-18.60
-44.07
-66.47
-82.36
-90.09
-90.65
-87.35
-84.25
-84.07
-86.76
-89.55
-88.35
-79.94
-63.57
-41.30
-16.98
5.54
23.94
38.02
49.17
59.12
68.92
78.20
85.55
89.40
88.71
83.09
72.35
56.25
34.93
9.65
-16.77
-40.37
-57.50
-66.44
-68.11
-65.59
-62.33
-60.34
-59.32
-57.13
-51.32
-40.78
-26.58
-11.47
1.35
9.86
14.18
16.51
20.16
28.07
41.36
58.59
76.21
89.93
96.04
92.40
78.92
57.53
31.78
6.21
-14.73
-27.98
-32.92
-31.63
-27.97
-25.91
-27.70
-33.08
-39.70
-44.49
-45.08
-40.73
-32.24
-21.44
-10.45
-1.20
4.98
7.56
6.94
4.31
1.16
-1.23
-2.19
-1.76
-0.43
1.18
2.59
3.47
3.56
2.60
0.43
-2.94
-7.21
-11.89
-16.58
-21.11
-25.67
-30.67
-36.48
-43.15
-50.27
-57.09
-62.84
-67.07
-69.83
-71.60
-73.03
-74.57
-76.32
-78.13
-79.80
-81.24
-82.25
-82.31
-80.32
-74.81
-64.52
-49.17
-29.85
-8.77
11.55
29.33
44.20
56.98
68.95
80.99
92.91
103.73
112.33
118.04
120.63
119.69
114.22
102.74
84.13
58.55
27.85
-4.85
-36.38
-64.65
-89.01
-109.59
-126.14
-137.32
-140.78
-134.41
-117.76
-92.77
-63.42
-34.34
-9.10
10.76
25.84
38.05
49.35
60.62
71.19
79.14
81.87
77.15
64.03
43.57
19.02
-5.03
-24.03
-35.09
-37.90
-34.50
-27.97
-20.66
-13.23
-4.92
5.10
16.47
27.34
35.27
38.85
38.76
37.51
38.03
41.82
48.05
53.54
54.11
46.50
30.19
8.19
-13.76
-29.06
-32.85
-23.93
-5.07
18.31
40.54
58.00
69.92
77.65
83.11
87.52
91.02
93.37
94.61
95.28
95.92
96.50
96.35
94.78
91.75
88.13
85.12
83.37
82.26
80.17
75.46
67.68
58.01
48.87
42.77
41.20
44.10
50.00
56.51
61.00
61.00
54.52
40.61
19.64
-6.28
-33.94
-60.20
-83.66
-105.48
-128.66
-155.92
-187.48
-220.09
-247.88
-264.74
-266.59
-252.59
-224.72
-186.41
-141.30
-92.86
-44.83
-1.48
32.70
54.20
61.92
57.85
46.67
34.25
25.91
25.01
32.29
45.94
62.54
78.45
91.06
99.59
104.84
108.20
110.48
111.28
109.35
103.54
93.81
81.24
67.34
52.85
37.11
18.36
-4.91
-32.89
-64.34
-97.52
-131.32
-165.43
-199.20
-230.24
-253.90
-264.54
-257.95
-233.50
-194.63
-147.46
-98.34
-52.04
-11.39
22.00
46.66
61.28
65.72
62.14
55.26
51.03
54.64
68.56
91.90
120.81
150.02
174.55
191.17
199.13
199.99
196.63
191.75
186.53
180.27
170.94
156.46
135.94
110.21
81.46
52.37
25.14
1.14
-19.21
-36.07
-50.04
-62.26
-74.16
-86.83
-100.11
-112.06
-119.39
-118.87
-109.08
-91.35
-69.44
-47.89
-30.23
-17.84
-9.96
-4.91
-1.43
0.62
0.53
-2.24
-7.30
-12.98
-16.77
-16.00
-8.53
6.76
29.50
57.92
89.03
119.47
146.29
167.78
183.73
195.14
203.35
209.17
212.18
210.81
203.06
187.54
164.16
134.31
100.38
65.14
31.14
0.40
-25.79
-47.21
-64.98
-81.58
-100.18
-123.15
-150.72
-180.16
-206.61
-225.02
-232.34
-228.88
-218.19
-205.47
-195.56
-191.35
-193.12
-198.93
-205.50
-209.26
-207.06
-196.55
-176.38
-146.24
-107.07
-61.09
-11.60
37.51
82.75
121.99
154.94
182.90
207.80
231.03
252.48
270.49
282.29
284.88
275.87
254.36
221.55
180.91
137.84
98.48
68.10
49.50
42.24
42.94
46.76
49.12
46.80
38.19
22.97
1.45
-25.48
-56.05
-87.28
-115.35
-136.48
-148.28
-150.73
-146.09
-138.02
-130.18
-124.82
-122.06
-120.02
-115.62
-105.82
-88.86
-64.79
-35.30
-2.86
30.44
63.58
96.45
128.98
160.09
187.10
206.11
213.14
205.62
183.24
148.09
103.98
55.54
7.37
-36.42
-72.53
-99.04
-115.89
-125.22
-131.05
-137.89
-148.93
-164.48
-181.75
-196.15
-203.59
-202.60
-195.17
-185.92
-180.09
-181.45
-191.01
-207.14
-226.54
-245.41
-260.20
-267.91
-266.05
-252.78
-227.37
-190.69
-145.76
-97.52
-51.81
-13.58
14.83
34.81
50.97
69.22
93.99
125.82
160.70
191.45
210.79
214.50
203.17
181.73
157.05
134.93
117.99
105.25
93.49
79.14
59.73
34.58
4.66
-27.94
-60.48
-89.91
-113.07
-126.92
-129.02
-118.25
-95.37
-63.45
-27.57
6.17
32.22
47.22
51.06
46.72
39.03
33.11
32.77
39.86
54.16
73.65
94.81
112.98
123.29
122.25
109.46
88.24
64.89
46.33
37.24
38.22
45.94
55.20
61.50
62.77
59.35
52.69
43.65
32.00
17.28
0.39
-15.61
-26.45
-29.00
-23.54
-14.32
-8.14
-10.96
-24.82
-46.85
-70.65
-89.44
-99.04
-99.07
-92.32
-82.92
-73.97
-66.48
-59.71
-52.37
-43.62
-33.33
-21.52
-7.92
7.74
25.80
46.18
67.75
88.52
106.72
121.98
136.02
151.68
169.86
189.47
207.44
219.08
219.26
204.28
173.41
130.23
81.92
34.89
-4.14
-29.61
-39.77
-39.04
-36.71
-44.01
-68.50
-111.53
-171.99
-242.17
-309.21
-359.77
-385.95
-387.37
-371.33
-347.93
-327.23
-321.81
-337.23
-369.19
-406.49
-437.88
-455.85
-458.68
-446.33
-387.88
-275.73
-133.21
0.07
96.99
149.57
174.34
186.05
196.96
215.89
239.96
263.39
280.94
289.56
287.50
274.73
251.90
222.54
191.19
157.65
122.45
88.90
62.30
46.81
43.97
51.65
66.65
84.60
97.71
100.18
91.57
77.57
67.09
68.01
83.58
112.55
149.48
185.55
213.39
230.12
236.79
235.33
224.89
201.70
162.56
107.81
42.65
-22.24
-72.67
-96.22
-87.88
-54.17
-10.91
23.92
36.88
23.14
-13.05
-60.87
-110.92
-149.70
-168.60
-170.04
-162.09
-149.50
-131.34
-104.63
-68.79
-24.60
23.51
68.70
105.19
130.92
147.53
158.66
162.14
158.77
150.79
141.13
132.21
125.28
121.14
119.84
120.61
122.17
124.08
125.94
127.16
127.11
125.92
125.24
127.16
132.11
137.56
138.86
130.30
107.47
69.04
17.45
-42.07
-103.53
-162.07
-214.39
-257.58
-288.73
-304.79
-303.42
-284.13
-249.55
-205.86
-162.45
-129.42
-114.37
-119.26
-139.27
-164.38
-183.23
-187.72
-175.68
-150.64
-119.03
-86.78
-57.34
-31.85
-10.72
5.03
13.88
15.01
9.63
0.96
-7.02
-11.28
-10.96
-7.22
-2.29
1.77
3.85
3.85
2.38
0.35
-1.25
-1.67
-0.66
1.29
3.06
3.17
0.36
-5.88
-15.07
-25.71
-35.64
-42.62
-44.90
-41.78
-33.71
-22.24
-9.40
2.92
13.41
21.46
26.93
29.70
29.50
25.97
18.98
8.96
-3.02
-15.46
-26.84
-36.07
-42.65
-46.71
-48.79
-49.47
-49.11
-47.75
-45.26
-41.61
-37.08
-32.15
-27.15
-21.78
-15.07
-5.70
7.25
23.55
41.69
59.44
74.88
87.37
97.70
107.43
117.60
127.71
135.54
138.01
132.52
118.29
96.69
70.83
44.51
21.19
3.41
-7.49
-11.53
-10.27
-6.69
-4.75
-8.12
-18.69
-35.31
-53.84
-68.48
-74.10
-68.57
-53.65
-34.22
-15.99
-3.18
2.91
3.66
1.69
-0.78
-2.84
-4.59
-6.44
-8.60
-11.18
-14.63
-19.85
-27.64
-37.69
-47.89
-54.73
-54.65
-45.55
-27.68
-3.23
24.79
53.61
80.91
104.15
120.08
124.93
115.94
92.97
59.55
22.17
-11.70
-36.15
-48.70
-50.73
-46.43
-40.96
-38.39
-40.47
-46.03
-51.45
-51.69
-42.11
-20.38
11.90
49.10
83.13
106.36
114.52
108.14
91.81
71.65
52.63
37.07
25.01
15.79
9.40
6.24
5.72
5.08
-0.06
-13.25
-34.27
-57.92
-75.72
-79.92
-67.32
-40.87
-8.00
23.08
46.71
61.20
67.66
67.95
62.94
52.56
36.91
17.66
-1.43
-15.27
-18.96
-9.75
11.39
39.29
65.84
82.68
84.59
71.83
50.18
28.24
13.49
9.07
12.95
19.96
25.00
25.45
21.32
13.65
2.75
-12.07
-31.10
-52.63
-72.69
-86.76
-92.31
-90.48
-85.42
-81.87
-82.33
-85.88
-89.14
-88.62
-82.71
-72.16
-59.21
-46.10
-34.33
-24.88
-18.90
-17.82
-22.62
-32.65
-44.69
-53.29
-52.47
-38.35
-11.24
23.85
59.10
87.23
104.61
112.57
116.01
120.10
127.26
136.05
142.63
143.59
138.20
128.62
118.05
108.42
99.15
87.96
72.90
54.29
34.97
18.76
8.21
2.86
-0.62
-6.59
-18.14
-35.47
-55.90
-75.16
-89.33
-96.25
-96.07
-91.02
-84.57
-80.80
-83.62
-95.83
-117.90
-146.88
-176.22
-197.08
-201.00
-182.83
-142.83
-86.92
-24.84
33.02
78.94
109.85
127.48
136.62
142.74
149.67
158.50
167.60
173.77
173.49
163.93
143.65
112.72
72.73
26.77
-20.81
-65.07
-101.53
-127.36
-142.01
-147.09
-145.29
-139.30
-130.71
-119.73
-105.73
-88.20
-67.66
-45.85
-25.17
-7.81
5.20
14.32
21.30
28.26
36.76
46.97
57.61
66.63
72.34
74.51
74.92
76.91
84.16
99.09
121.59
148.36
173.49
189.83
190.99
173.38
138.01
90.72
40.97
-1.32
-29.82
-44.51
-51.96
-62.17
-83.68
-119.06
-163.25
-205.90
-236.17
-247.89
-242.11
-225.79
-207.65
-193.52
-183.95
-175.07
-161.85
-141.27
-113.77
-82.36
-50.37
-19.75
9.23
36.77
62.30
84.24
100.85
111.65
118.13
123.17
129.44
138.06
147.80
155.61
157.72
151.09
134.25
107.95
75.19
40.96
11.33
-8.27
-15.08
-10.74
-1.57
3.26
-4.73
-29.54
-68.50
-112.95
-151.73
-176.15
-183.87
-179.69
-172.77
-171.60
-179.47
-192.73
-202.80
-200.77
-182.16
-148.99
-108.43
-68.67
-34.80
-6.75
19.50
48.63
82.52
118.91
152.42
177.27
189.99
190.42
180.95
164.89
144.80
122.10
98.24
76.14
60.75
57.70
70.36
96.68
127.87
150.43
151.43
124.59
74.10
13.67
-39.23
-70.85
-76.93
-63.54
-43.06
-27.68
-24.17
-32.42
-47.89
-65.81
-83.97
-102.34
-120.20
-133.60
-135.23
-118.01
-80.02
-27.44
26.70
67.83
86.29
81.36
60.75
36.06
17.13
8.21
7.63
10.14
10.29
4.85
-6.26
-20.46
-33.79
-42.31
-43.65
-37.99
-28.45
-19.94
-17.11
-22.10
-33.33
-46.04
-54.56
-54.91
-46.41
-31.73
-15.44
-1.99
5.45
5.07
-4.32
-23.82
-53.92
-93.06
-136.35
-175.50
-200.55
-202.86
-178.09
-127.86
-59.47
16.14
87.12
143.08
176.45
183.15
162.98
120.26
64.07
7.33
-35.86
-54.49
-44.98
-13.34
26.28
56.74
64.95
47.07
9.70
-33.55
-68.43
-85.63
-83.28
-65.59
-39.36
-10.40
18.01
44.67
69.05
90.09
106.14
115.94
119.43
117.92
113.57
108.53
104.39
102.09
102.16
104.86
110.35
118.37
128.11
138.26
147.20
153.34
155.23
151.39
140.37
121.14
94.14
62.37
31.51
8.40
-2.03
0.29
9.48
15.72
9.63
-13.33
-50.55
-93.63
-132.34
-159.13
-171.88
-173.88
-171.52
-171.19
-176.93
-189.30
-205.32
-219.39
-224.70
-215.34
-188.46
-145.36
-91.23
-33.15
22.63
72.63
116.35
155.05
189.70
219.53
242.06
254.05
252.97
237.94
209.89
171.36
126.59
81.50
43.26
18.86
12.47
22.87
42.52
59.45
61.59
41.93
1.77
-49.78
-99.54
-135.93
-153.47
-154.26
-145.91
-137.54
-135.78
-142.76
-156.55
-173.09
-188.60
-200.69
-207.99
-209.02
-201.44
-182.56
-151.06
-108.69
-60.96
-15.98
18.19
36.30
37.57
25.37
5.63
-15.26
-32.15
-41.75
-42.75
-35.55
-22.10
-5.62
10.19
22.31
29.40
32.17
32.95
34.44
38.60
45.89
55.35
65.24
73.87
80.18
83.87
85.25
85.01
84.01
82.89
81.59
78.73
71.48
56.40
31.22
-3.06
-41.18
-74.47
-93.81
-93.40
-73.38
-39.89
-2.49
29.85
51.84
62.73
64.90
61.49
54.67
45.36
33.92
21.03
7.72
-5.01
-16.57
-26.66
-34.63
-39.16
-38.45
-31.01
-16.56
3.60
26.81
49.77
69.21
82.60
88.49
86.99
79.70
69.54
59.81
53.07
50.19
50.00
49.51
44.71
32.00
9.77
-20.25
-52.47
-78.74
-91.19
-85.76
-64.44
-34.85
-7.23
10.04
13.47
5.04
-10.08
-26.62
-41.47
-53.92
-64.42
-73.05
-78.76
-79.68
-74.06
-61.16
-41.76
-17.97
7.41
31.78
53.55
72.58
89.88
106.71
123.38
138.68
150.35
156.47
157.02
154.46
152.52
153.80
157.61
159.91
155.44
141.06
118.26
93.14
73.89
66.89
73.56
89.62
107.05
117.33
114.26
95.24
61.52
17.70
-29.21
-71.38
-102.72
-120.86
-128.20
-130.72
-134.92
-144.45
-158.29
-171.69
-179.58
-180.51
-177.01
-173.38
-172.29
-173.06
-172.27
-166.08
-152.64
-133.21
-112.18
-93.43
-77.67
-62.13
-43.23
-19.28
8.41
36.88
63.26
84.37
99.14
108.68
114.78
117.05
112.52
97.83
72.37
38.78
-0.50
-43.04
-86.83
-130.35
-173.86
-218.54
-264.48
-308.92
-328.45
-304.01
-234.54
-140.43
-47.67
25.38
72.00
95.33
108.78
123.11
141.62
161.90
179.05
190.33
192.44
185.56
173.77
164.46
162.97
168.22
174.33
174.29
164.39
143.33
112.06
69.36
20.53
-24.72
-57.66
-73.92
-78.09
-72.45
-60.37
-47.62
-41.30
-44.79
-61.09
-90.07
-127.94
-168.28
-203.15
-226.32
-233.73
-223.73
-196.63
-156.20
-108.79
-61.42
-19.31
16.17
45.90
71.56
93.31
110.31
121.30
127.01
130.71
137.67
152.87
178.09
210.33
241.06
260.02
258.91
234.90
191.18
136.27
81.48
38.49
15.78
13.59
25.16
39.36
45.09
34.58
6.38
-34.75
-78.68
-114.94
-140.36
-158.26
-175.63
-198.28
-228.24
-262.35
-294.21
-315.01
-302.91
-246.99
-157.63
-63.20
11.19
55.25
81.28
102.55
129.08
165.59
205.02
238.69
258.61
260.82
244.73
212.40
166.46
112.40
58.08
11.02
-21.44
-35.88
-32.51
-16.71
2.08
11.81
3.65
-25.26
-71.23
-124.50
-175.31
-215.16
-239.85
-249.73
-249.59
-244.57
-238.09
-230.01
-205.09
-154.57
-82.48
-5.80
57.76
98.51
122.49
138.15
153.89
175.93
200.56
222.68
237.18
241.12
232.98
214.56
190.07
165.24
143.67
123.27
99.62
70.22
37.31
4.58
-22.69
-41.07
-50.35
-55.12
-63.72
-82.63
-111.54
-143.65
-173.24
-196.95
-215.83
-233.51
-254.41
-280.62
-309.19
-331.13
-318.64
-257.86
-159.87
-54.78
31.98
90.36
129.75
159.57
187.05
217.01
243.52
261.89
269.44
267.40
258.06
242.67
219.82
188.26
148.53
101.93
55.02
16.37
-5.18
-6.00
9.87
30.23
40.44
29.19
-8.67
-67.50
-136.03
-200.17
-249.27
-278.69
-291.52
-294.98
-296.52
-300.83
-291.43
-255.57
-190.93
-108.86
-25.27
45.81
96.23
128.54
147.60
160.91
173.61
189.33
203.46
214.24
220.99
223.35
219.52
206.65
182.75
144.76
92.03
26.75
-42.45
-101.11
-130.67
-125.07
-95.82
-61.23
-38.10
-28.07
-29.34
-37.87
-50.58
-65.36
-83.02
-103.89
-125.33
-142.80
-145.03
-126.20
-87.76
-38.17
11.69
51.89
77.19
89.55
93.29
94.01
95.87
102.88
117.97
142.06
168.62
190.92
202.53
198.55
177.01
137.99
85.53
27.78
-24.65
-62.15
-78.46
-73.93
-56.28
-37.98
-32.46
-47.75
-82.77
-128.54
-173.26
-207.48
-228.31
-239.34
-246.81
-256.04
-267.14
-274.17
-268.18
-242.09
-194.02
-128.73
-55.67
15.10
75.56
123.04
160.61
193.92
226.87
259.42
287.76
306.89
313.86
307.43
288.76
260.57
225.23
184.03
138.77
93.56
50.95
21.26
10.60
13.94
19.99
19.22
6.11
-21.09
-61.06
-108.12
-154.04
-192.31
-218.85
-232.10
-233.77
-228.88
-223.95
-224.26
-231.35
-241.92
-249.97
-248.19
-230.14
-193.01
-139.27
-75.94
-12.17
43.70
86.44
114.06
128.45
134.34
137.21
141.02
147.26
154.78
160.69
161.70
155.22
141.06
122.56
105.96
98.27
104.20
123.28
148.78
169.39
173.22
152.92
108.88
48.71
-16.74
-78.70
-134.08
-185.24
-236.04
-287.12
-333.07
-363.97
-370.03
-346.86
-298.16
-234.30
-167.19
-104.65
-48.16
5.94
62.40
122.78
183.95
239.26
280.27
299.93
295.32
267.87
223.07
169.74
118.58
80.35
63.26
68.74
90.37
116.40
132.96
129.26
101.51
53.72
-4.17
-60.29
-106.68
-140.33
-160.19
-165.68
-155.05
-126.14
-81.67
-32.39
15.42
57.45
85.40
96.97
95.34
87.92
83.39
87.64
103.46
130.24
162.29
190.61
207.42
207.76
191.32
161.77
122.61
77.62
30.86
-14.44
-55.24
-87.37
-108.39
-119.27
-125.23
-136.36
-160.16
-196.78
-239.43
-278.18
-303.84
-312.88
-307.19
-280.27
-235.22
-183.13
-135.41
-97.17
-69.41
-46.75
-25.71
-2.97
26.06
60.77
98.74
136.81
171.69
200.52
222.77
238.53
249.15
256.73
259.50
254.56
240.01
215.61
182.24
142.02
95.51
36.93
-29.32
-91.80
-137.01
-156.13
-148.77
-126.99
-101.32
-82.52
-77.93
-88.86
-112.37
-140.90
-164.95
-177.37
-176.30
-164.71
-149.61
-137.51
-132.15
-134.58
-143.07
-149.86
-147.02
-130.36
-100.91
-66.05
-26.95
15.84
60.72
102.47
136.26
159.16
171.29
175.57
175.52
174.18
172.04
167.54
158.28
142.51
119.35
89.83
57.81
29.66
12.70
11.22
24.05
43.78
58.97
57.74
32.44
-17.10
-83.83
-156.42
-224.21
-280.07
-321.28
-348.00
-361.55
-362.78
-351.87
-329.05
-295.69
-254.87
-210.25
-164.48
-118.04
-69.40
-16.48
41.23
101.27
158.08
204.56
234.49
244.69
236.18
213.86
185.09
157.44
136.10
121.84
110.64
95.70
71.15
35.95
-4.37
-39.35
-57.94
-53.60
-27.15
13.88
58.82
98.32
127.36
145.27
153.76
154.48
147.88
133.76
112.67
86.99
60.92
39.33
25.85
21.71
25.25
32.77
39.87
42.78
39.38
29.49
14.70
-2.22
-18.07
-30.09
-36.80
-38.42
-36.75
-34.50
-34.05
-36.48
-41.44
-47.66
-53.41
-56.71
-55.06
-45.56
-25.97
3.55
38.92
72.26
94.03
96.47
76.38
36.38
-16.14
-71.51
-120.15
-154.69
-170.50
-165.51
-139.92
-96.44
-40.68
19.29
74.19
115.81
138.83
142.07
128.77
105.68
80.70
60.55
49.33
47.87
54.82
67.09
80.46
90.40
93.53
87.21
69.88
41.66
4.64
-35.71
-72.90
-101.54
-118.82
-123.32
-116.68
-103.25
-88.26
-76.78
-69.42
-64.73
-60.69
-54.86
-41.88
-17.40
20.13
68.81
122.58
177.34
228.01
268.09
291.68
298.87
292.62
277.63
259.55
242.52
234.68
241.58
263.36
269.22
237.40
165.89
71.99
-7.94
-74.15
-129.29
-173.53
-208.61
-232.00
-238.64
-227.56
-203.52
-175.32
-153.57
-140.84
-134.90
-133.89
-134.89
-133.04
-126.35
-116.35
-106.07
-99.22
-94.44
-89.07
-81.12
-70.68
-56.86
-38.95
-16.85
8.50
34.38
54.33
64.31
63.61
55.03
43.74
33.38
24.27
13.57
-3.12
-26.50
-55.52
-86.28
-113.55
-132.34
-140.20
-137.84
-128.36
-115.70
-102.46
-89.13
-73.45
-55.17
-35.78
-18.66
-7.91
-6.27
-13.18
-24.24
-32.22
-30.18
-15.16
10.68
40.77
67.07
83.57
88.40
83.76
74.21
64.54
57.93
56.19
60.10
69.97
85.29
104.16
122.79
135.86
137.80
124.38
94.61
51.67
2.59
-43.33
-77.31
-93.84
-92.68
-78.68
-59.84
-43.92
-35.71
-35.81
-41.49
-48.87
-54.93
-58.61
-60.36
-61.02
-60.72
-58.55
-53.29
-44.32
-32.38
-19.46
-8.14
-0.44
2.77
1.76
-2.60
-9.32
-17.28
-24.96
-30.37
-31.72
-28.78
-23.82
-21.39
-26.37
-41.35
-64.56
-90.19
-110.63
-119.83
-115.46
-99.05
-74.25
-44.44
-11.52
23.77
60.44
95.82
125.48
144.40
149.02
139.00
117.86
91.96
68.53
53.26
48.60
53.46
64.31
77.05
88.61
97.65
104.18
108.79
112.09
114.59
116.69
118.60
120.06
120.33
118.49
113.83
106.23
95.78
82.12
64.19
40.66
11.22
-22.40
-56.59
-87.40
-112.38
-131.72
-147.49
-161.71
-174.56
-183.97
-186.90
-181.21
-167.07
-146.67
-122.98
-98.32
-73.62
-48.69
-23.30
2.03
25.81
45.97
60.52
68.18
68.99
64.61
58.12
53.18
52.68
57.65
66.70
76.61
83.55
84.69
79.38
69.10
56.58
44.51
34.82
28.30
24.82
23.50
23.07
22.30
20.18
15.70
8.00
-3.23
-17.50
-33.62
-50.34
-66.46
-80.65
-91.91
-100.41
-107.58
-115.04
-123.30
-131.47
-137.84
-140.40
-137.24
-127.69
-113.66
-99.48
-89.41
-85.13
-85.25
-86.56
-85.06
-76.34
-56.94
-25.53
16.45
66.18
120.19
173.32
217.75
241.19
231.93
192.45
140.64
95.69
65.38
46.98
35.44
25.73
14.60
5.78
2.73
6.65
14.68
21.75
23.63
18.58
6.87
-9.75
-28.56
-47.36
-65.12
-82.22
-98.65
-112.90
-122.83
-127.04
-125.49
-118.96
-109.28
-99.32
-92.91
-93.29
-101.32
-114.71
-128.55
-136.56
-132.95
-114.88
