1719225275.00
64.000000
-0.00
-0.00
-0.00
-0.00
-0.00
-0.00
-0.00
-0.00
-0.00
-0.00
0.00
0.01
0.01
-0.00
-0.03
-0.05
-0.05
0.00
0.13
0.36
0.66
1.01
1.37
1.72
2.06
2.40
2.79
3.24
3.80
4.42
5.06
5.66
6.20
6.68
7.15
7.68
8.31
9.14
10.09
11.04
11.88
12.56
13.14
13.76
14.65
15.96
17.91
20.32
22.90
25.38
27.58
29.57
31.68
34.32
37.81
42.54
48.15
54.10
59.83
64.97
69.58
74.14
79.34
85.71
93.76
103.00
112.62
121.73
129.77
136.75
143.30
150.75
157.77
166.64
177.95
191.79
206.97
220.57
228.25
225.36
208.53
176.87
132.76
80.05
23.07
-34.94
-92.44
-149.16
-205.23
-260.37
-313.74
-363.87
-409.83
-450.91
-486.50
-515.74
-537.23
-549.22
-549.96
-538.37
-514.21
-478.67
-433.88
-382.45
-327.02
-269.84
-212.63
-156.66
-102.95
-52.37
-5.90
35.58
71.43
101.35
125.50
144.38
158.69
169.15
176.37
180.75
182.57
182.07
179.51
175.23
169.65
163.18
156.15
148.81
141.30
133.69
126.02
118.33
110.69
103.16
95.80
88.68
81.83
75.25
68.95
62.95
57.25
51.86
46.78
42.03
37.59
33.45
29.61
26.07
22.81
19.83
17.11
14.67
12.48
10.54
8.83
7.35
6.07
4.97
4.05
3.27
2.62
2.08
1.65
1.29
1.02
0.81
0.64
0.50
0.37
0.24
0.12
-0.01
-0.11
-0.19
-0.25
-0.28
-0.31
-0.34
-0.39
-0.43
-0.47
-0.49
-0.47
-0.43
-0.39
-0.37
-0.40
-0.50
-0.63
-0.77
-0.88
-0.92
-0.90
-0.86
-0.86
-0.99
-1.26
-1.65
-2.05
-2.38
-2.54
-2.54
-2.47
-2.51
-2.77
-3.32
-4.08
-4.89
-5.54
-5.89
-5.92
-5.82
-5.82
-6.14
-6.84
-7.84
-8.86
-9.65
-10.08
-10.14
-10.00
-9.88
-9.91
-10.21
-10.97
-12.41
-14.61
-17.10
-18.80
-18.22
-14.13
-6.19
4.75
16.97
28.60
38.44
46.09
51.73
55.55
57.00
55.23
49.69
40.64
29.33
17.59
7.13
-1.07
-6.95
-11.04
-14.01
-16.35
-18.16
-19.34
-19.79
-19.56
-18.94
-18.28
-17.95
-18.08
-18.60
-19.36
-20.28
-21.43
-22.84
-24.23
-24.80
-23.36
-18.67
-10.22
1.27
13.89
25.07
32.51
34.94
32.44
26.14
17.63
8.39
-0.55
-8.54
-15.11
-19.89
-22.75
-23.86
-23.82
-23.45
-23.53
-24.46
-26.15
-28.11
-29.71
-30.51
-30.52
-30.27
-30.48
-31.74
-34.05
-36.65
-38.10
-36.71
-31.20
-21.01
-7.18
8.36
23.23
35.33
43.47
47.43
47.85
45.67
41.77
36.71
30.89
24.62
18.31
12.50
7.71
4.24
2.06
0.77
-0.32
-1.81
-4.13
-7.48
-11.92
-17.49
-24.15
-31.52
-38.66
-44.10
-46.14
-43.54
-36.08
-24.82
-11.75
0.86
11.18
18.24
21.90
22.56
20.74
16.90
11.41
4.65
-2.90
-10.67
-18.10
-24.84
-30.79
-36.14
-41.18
-46.25
-51.52
-57.03
-62.80
-68.86
-75.27
-81.79
-87.67
-91.41
-91.05
-84.76
-71.63
-52.19
-28.44
-3.23
20.63
41.12
57.35
69.31
77.38
81.90
83.09
81.20
76.78
70.75
64.25
58.23
53.29
49.45
46.44
43.84
41.33
38.69
35.67
31.92
26.96
20.55
12.94
5.20
-0.94
-3.55
-1.18
6.55
18.71
33.32
47.90
60.14
68.51
72.48
72.39
69.14
63.77
57.13
49.79
41.99
33.84
25.48
17.11
9.03
1.52
-5.32
-11.57
-17.40
-23.08
-28.80
-34.77
-41.24
-48.45
-56.43
-64.76
-72.43
-78.01
-80.05
-77.64
-70.79
-60.57
-48.71
-37.06
-27.05
-19.30
-13.71
-9.75
-6.95
-5.23
-4.98
-6.73
-10.75
-16.66
-23.28
-28.89
-31.82
-30.85
-25.51
-16.06
-3.28
11.73
27.46
41.90
52.54
56.73
52.39
38.93
17.73
-7.90
-33.55
-54.86
-68.69
-73.78
-70.72
-61.30
-47.73
-31.93
-15.25
1.42
17.35
31.67
43.47
51.89
56.58
57.77
56.25
52.95
48.48
42.83
35.35
25.16
11.57
-5.48
-25.39
-47.05
-69.07
-89.88
-107.83
-121.09
-127.83
-126.54
-116.53
-98.43
-74.21
-46.83
-19.60
4.71
24.45
39.33
50.11
58.12
64.74
71.10
78.04
86.11
95.68
106.92
119.65
133.46
147.76
161.92
175.36
187.41
197.30
204.25
207.64
207.28
203.49
196.86
188.00
177.44
165.83
154.09
143.57
135.56
130.66
128.19
126.21
122.22
114.24
101.68
85.39
67.07
48.19
29.11
8.95
-13.85
-40.40
-70.50
-102.41
-133.45
-160.97
-183.26
-199.83
-211.04
-217.57
-219.94
-218.52
-213.80
-206.53
-197.64
-187.80
-177.08
-165.02
-150.94
-134.59
-116.38
-97.31
-78.57
-61.15
-45.69
-32.53
-21.76
-13.42
-7.45
-3.64
-1.58
-0.67
-0.21
0.54
2.22
5.20
9.51
14.81
20.57
26.22
31.31
35.59
39.08
42.02
44.94
48.58
53.69
60.80
69.93
80.50
91.42
101.54
109.99
116.47
121.10
124.19
125.87
125.90
123.90
119.63
113.38
105.91
98.34
91.55
85.93
81.16
76.42
70.78
63.65
55.06
45.74
37.18
31.39
30.59
36.65
50.41
71.23
96.82
123.67
147.87
166.13
176.47
178.50
173.14
162.00
146.73
128.57
108.22
86.12
62.92
39.82
18.48
0.39
-14.05
-26.15
-38.74
-55.09
-77.43
-105.90
-138.41
-171.46
-201.49
-225.94
-243.60
-254.29
-258.37
-256.19
-248.12
-234.80
-217.51
-198.34
-180.07
-165.56
-156.91
-154.67
-157.43
-162.32
-166.13
-166.65
-163.48
-157.84
-151.57
-145.89
-140.74
-134.95
-127.05
-116.23
-102.65
-87.24
-71.15
-55.22
-39.86
-25.16
-11.02
2.72
16.39
30.42
45.20
60.85
77.02
92.89
107.40
119.59
128.94
135.40
139.32
141.19
141.42
140.24
137.75
134.05
129.26
123.60
117.24
110.31
102.91
95.24
87.76
81.20
76.32
73.66
73.13
73.91
74.65
73.96
71.00
65.90
59.71
53.97
49.99
48.26
48.18
48.36
47.17
43.44
36.84
27.83
17.45
6.86
-2.93
-11.26
-17.92
-23.13
-27.61
-32.29
-37.98
-44.71
-51.31
-55.24
-53.34
-43.23
-24.73
-0.76
23.01
39.84
44.14
33.49
9.53
-22.76
-56.87
-86.96
-109.41
-123.28
-129.80
-131.24
-129.80
-127.01
-123.59
-119.78
-115.63
-111.24
-106.77
-102.24
-97.49
-92.14
-85.79
-78.28
-69.68
-60.21
-49.99
-38.87
-26.45
-12.23
3.95
21.78
40.42
58.89
76.36
92.54
107.70
122.43
137.16
151.73
165.19
175.94
182.28
183.07
178.16
168.50
155.72
141.42
126.60
111.48
95.81
79.41
62.56
45.82
29.55
13.56
-2.77
-19.85
-37.11
-52.90
-65.12
-72.35
-74.74
-74.00
-72.52
-72.09
-73.10
-74.69
-75.57
-74.97
-73.09
-70.72
-68.65
-67.19
-66.23
-65.58
-65.34
-65.98
-68.03
-71.75
-76.83
-82.57
-88.11
-92.87
-96.62
-99.57
-102.14
-104.82
-107.96
-111.79
-116.36
-121.54
-127.03
-132.21
-136.15
-137.69
-135.66
-129.27
-118.30
-103.27
-85.21
-65.47
-45.56
-27.07
-11.58
-0.45
5.51
6.42
3.48
-1.34
-6.02
-9.19
-10.57
-10.86
-11.19
-12.42
-14.79
-17.91
-21.10
-23.79
-25.72
-26.93
-27.57
-27.75
-27.36
-26.12
-23.78
-20.23
-15.65
-10.48
-5.24
-0.35
4.00
7.84
11.34
14.54
17.39
19.62
20.95
21.18
20.39
18.89
17.17
15.69
14.69
14.17
13.86
13.43
12.64
11.47
10.11
8.85
7.81
6.89
5.86
4.59
3.31
2.63
3.33
5.85
10.01
14.98
19.57
22.82
24.33
24.41
23.72
22.88
22.16
21.37
20.15
18.18
15.42
12.16
8.86
5.92
3.61
1.95
0.84
0.08
-0.47
-0.96
-1.54
-2.45
-4.06
-6.58
-9.95
-13.61
-16.55
-17.62
-15.97
-11.45
-4.65
3.26
10.92
17.26
21.63
23.91
24.42
23.72
22.49
21.40
20.97
21.40
22.62
24.20
25.70
26.66
26.94
26.59
25.81
24.80
23.69
22.50
21.17
19.66
17.86
15.73
13.38
11.13
9.63
9.58
11.63
15.92
22.06
29.26
36.53
43.12
48.54
52.61
55.35
56.90
57.61
58.00
58.69
60.08
62.21
64.67
66.92
68.64
70.00
71.57
74.05
77.71
82.21
86.61
89.65
90.16
87.34
81.07
71.90
61.01
50.03
40.41
33.01
27.56
22.73
16.65
7.69
-4.76
-20.01
-36.48
-52.43
-66.58
-78.25
-87.27
-93.64
-97.43
-98.88
-98.48
-96.80
-93.99
-89.50
-82.35
-72.01
-59.38
-46.94
-37.80
-34.07
-35.47
-39.23
-41.53
-39.37
-32.10
-21.49
-10.69
-2.80
0.34
-1.49
-7.08
-14.28
-20.55
-23.49
-21.47
-14.04
-2.10
12.52
27.68
41.50
52.50
59.55
61.72
58.41
49.68
36.59
21.20
6.30
-5.18
-10.75
-9.02
-0.35
12.84
26.32
34.97
34.34
22.01
-1.48
-32.56
-65.74
-94.87
-114.73
-122.09
-116.49
-100.18
-77.85
-55.64
-39.27
-32.15
-33.81
-40.08
-44.82
-42.82
-32.20
-14.98
4.25
21.05
33.30
41.84
49.19
57.44
66.59
74.62
78.87
77.74
71.82
63.43
55.34
49.39
45.78
43.26
39.97
34.40
26.14
16.00
5.55
-3.63
-10.73
-16.00
-20.51
-25.60
-32.06
-39.84
-48.11
-55.78
-62.01
-66.41
-68.93
-69.55
-68.11
-64.48
-58.74
-51.40
-43.34
-35.40
-28.01
-21.10
-14.32
-7.45
-0.75
5.20
9.91
13.39
16.40
20.05
25.34
32.43
40.57
48.27
54.03
56.99
57.30
55.98
54.40
53.61
54.12
56.05
59.52
65.06
73.56
85.76
101.70
120.34
139.83
158.00
172.83
182.25
183.97
175.45
154.73
121.70
79.15
32.66
-10.93
-45.89
-69.50
-82.60
-88.43
-90.59
-91.36
-91.20
-89.49
-85.73
-80.50
-75.41
-72.45
-72.97
-77.06
-83.40
-89.82
-94.08
-94.65
-91.24
-84.64
-76.24
-67.34
-58.60
-50.08
-41.47
-32.71
-24.16
-16.67
-11.15
-8.23
-7.99
-9.96
-13.37
-17.34
-21.15
-24.35
-26.84
-28.82
-30.71
-32.89
-35.50
-38.44
-41.48
-44.55
-47.91
-52.08
-57.48
-64.00
-70.79
-76.43
-79.48
-79.02
-74.98
-68.09
-59.43
-50.08
-40.90
-32.47
-25.28
-19.85
-16.53
-15.34
-15.75
-16.79
-17.39
-16.79
-14.82
-11.78
-8.21
-4.46
-0.56
3.76
8.77
14.60
20.94
27.31
33.10
37.91
41.76
45.15
48.95
54.24
61.87
72.19
84.80
98.49
111.54
122.05
128.37
129.36
124.60
114.49
100.11
83.30
66.22
50.99
39.25
31.71
28.12
27.50
28.62
30.56
32.88
35.70
39.35
44.03
49.46
55.02
59.86
63.34
65.27
66.00
66.26
66.77
67.95
69.66
71.26
71.84
70.52
66.65
59.92
50.32
37.95
23.04
5.91
-12.81
-32.17
-50.81
-67.21
-80.00
-88.41
-92.53
-93.33
-92.34
-91.10
-90.66
-91.30
-92.59
-93.84
-94.43
-94.13
-92.95
-90.96
-87.98
-83.65
-77.54
-69.49
-59.80
-49.25
-38.83
-29.45
-21.74
-15.88
-11.68
-8.78
-6.76
-5.35
-4.30
-3.52
-2.83
-1.98
-0.60
1.61
4.77
8.60
12.47
15.64
17.58
18.24
17.99
17.44
17.07
17.17
17.82
19.27
21.97
26.52
33.23
41.79
51.10
59.58
65.75
68.68
68.17
64.51
58.11
49.30
38.38
25.91
12.89
0.60
-9.73
-17.38
-22.35
-25.27
-26.99
-28.25
-29.39
-30.49
-31.47
-32.38
-33.38
-34.79
-36.81
-39.41
-42.20
-44.48
-45.33
-43.95
-39.96
-33.64
-25.87
-17.83
-10.51
-4.37
0.68
5.03
8.99
12.51
15.25
16.97
17.85
18.49
19.77
22.38
26.52
31.90
37.95
44.14
50.16
56.00
61.68
67.05
71.79
75.41
77.57
78.34
78.29
78.38
79.56
82.35
86.40
90.55
92.98
91.88
86.00
75.00
59.55
41.09
21.35
1.97
-15.85
-31.42
-44.49
-55.19
-63.83
-70.75
-76.30
-80.81
-84.49
-87.42
-89.67
-91.32
-92.57
-93.63
-94.67
-95.47
-95.45
-93.67
-89.17
-81.40
-70.43
-56.98
-42.21
-27.26
-13.04
-0.12
11.19
20.60
27.82
32.60
34.90
34.97
33.39
30.86
27.91
24.82
21.52
17.83
13.75
9.59
5.96
3.43
2.25
2.08
2.10
1.47
-0.30
-2.89
-5.39
-6.63
-5.82
-2.85
1.66
6.69
11.34
15.04
17.72
19.54
20.68
21.20
21.07
20.28
18.93
17.23
15.34
13.30
11.00
8.30
5.19
1.92
-1.05
-3.19
-4.13
-3.91
-3.02
-2.30
-2.72
-4.89
-8.85
-13.90
-18.76
-22.08
-22.86
-20.87
-16.65
-11.21
-5.50
-0.11
4.79
9.12
12.63
14.85
15.33
14.03
11.43
8.42
5.74
3.68
1.89
-0.27
-3.33
-7.34
-11.92
-16.49
-20.55
-23.85
-26.27
-27.76
-28.29
-27.90
-26.83
-25.44
-24.03
-22.56
-20.55
-17.33
-12.21
-4.96
4.14
14.30
24.51
33.69
41.02
46.00
48.54
48.99
47.96
46.13
43.91
41.34
38.10
33.80
28.35
22.06
15.63
9.73
4.74
0.50
-3.52
-7.92
-13.12
-19.17
-25.82
-32.67
-39.19
-44.71
-48.47
-49.72
-47.98
-43.33
-36.52
-28.85
-21.74
-16.30
-12.92
-11.17
-10.04
-8.40
-5.55
-1.55
2.74
6.05
7.30
6.04
2.69
-1.76
-6.12
-9.43
-11.16
-11.18
-9.57
-6.57
-2.51
2.09
6.55
10.18
12.47
13.29
13.01
12.40
12.49
14.25
18.24
24.38
31.88
39.46
45.74
49.84
51.58
51.55
50.80
50.35
50.70
51.57
52.07
50.92
46.94
39.39
28.36
14.82
0.61
-11.84
-20.05
-22.15
-17.68
-7.83
4.60
16.04
23.26
24.43
19.62
10.57
-0.09
-9.94
-17.52
-22.67
-26.15
-28.96
-31.82
-34.68
-36.92
-37.59
-35.78
-30.94
-22.97
-12.31
0.22
13.54
26.53
38.15
47.65
54.59
58.89
60.75
60.65
59.28
57.35
55.41
53.47
50.93
46.78
40.13
30.84
19.86
8.99
0.31
-4.62
-5.28
-2.21
3.30
9.71
15.60
20.03
22.49
22.87
21.34
18.21
13.79
8.39
2.35
-3.95
-10.04
-15.39
-19.63
-22.51
-24.02
-24.19
-22.95
-20.20
-15.88
-10.29
-4.07
1.91
6.95
10.84
13.92
16.76
19.76
22.81
25.27
26.30
25.40
22.59
18.35
13.24
7.53
1.00
-6.70
-15.61
-24.99
-33.36
-39.04
-40.88
-38.99
-34.73
-30.37
-28.08
-29.07
-33.10
-38.73
-44.10
-47.93
-50.17
-52.03
-55.41
-61.93
-72.22
-85.58
-100.32
-114.25
-125.02
-130.26
-127.64
-115.35
-92.99
-62.51
-28.33
3.64
28.03
42.04
46.33
44.55
41.31
40.14
42.36
47.31
53.63
60.54
68.36
77.96
89.84
103.34
116.63
127.36
133.53
134.22
129.74
121.37
110.84
99.87
89.88
81.83
76.17
72.85
71.32
70.71
70.06
68.55
65.64
61.10
54.92
47.24
38.35
28.74
19.11
10.27
2.88
-2.80
-7.09
-10.86
-15.24
-21.20
-29.21
-38.98
-49.59
-59.78
-68.35
-74.58
-78.36
-80.13
-80.56
-80.26
-79.63
-78.83
-77.93
-76.96
-75.92
-74.80
-73.51
-71.99
-70.28
-68.53
-66.96
-65.71
-64.78
-64.03
-63.33
-62.64
-62.07
-61.80
-61.83
-61.95
-61.76
-60.87
-59.08
-56.44
-53.17
-49.57
-45.89
-42.33
-39.06
-36.23
-33.96
-32.16
-30.57
-28.81
-26.44
-23.16
-18.86
-13.63
-7.71
-1.48
4.70
10.42
15.39
19.45
22.65
25.23
27.57
30.01
32.73
35.68
38.53
40.94
42.61
43.49
43.70
43.43
42.81
41.87
40.51
38.67
36.35
33.54
30.14
26.00
20.99
15.41
10.03
6.07
4.54
5.84
9.38
13.89
17.93
20.56
21.56
21.21
19.96
18.00
15.24
11.44
6.52
0.63
-5.87
-12.56
-19.06
-25.06
-30.37
-34.89
-38.71
-42.02
-45.02
-47.79
-50.20
-52.00
-53.04
-53.31
-52.94
-52.06
-50.49
-47.72
-43.14
-36.35
-27.49
-17.35
-7.10
2.13
9.67
15.43
19.71
22.87
25.05
26.07
25.79
24.19
21.61
18.51
15.29
11.99
8.34
3.92
-1.57
-8.10
-15.31
-22.59
-29.31
-34.96
-39.31
-42.35
-44.22
-45.13
-45.32
-44.93
-44.02
-42.45
-39.85
-35.72
-29.69
-21.74
-12.32
-2.27
7.52
16.53
24.70
32.32
39.60
46.35
51.95
55.60
56.74
55.44
52.23
47.94
43.25
38.51
33.76
28.96
24.10
19.21
14.26
9.12
3.59
-2.41
-8.59
-14.36
-18.98
-21.96
-23.16
-22.80
-21.15
-18.30
-13.99
-7.90
0.00
9.21
18.68
27.20
33.88
38.38
40.98
42.22
42.62
42.42
41.62
40.19
38.20
35.80
33.12
30.13
26.63
22.42
17.55
12.38
7.58
3.84
1.61
0.94
1.60
3.19
5.28
7.52
9.56
11.22
12.56
13.91
15.83
18.78
22.86
27.67
32.43
36.27
38.54
38.98
37.73
35.13
31.57
27.45
23.04
18.56
14.09
9.54
4.69
-0.69
-6.74
-13.31
-19.99
-26.10
-30.95
-34.04
-35.33
-35.35
-35.05
-35.46
-37.14
-39.82
-42.45
-43.63
-42.16
-37.59
-30.32
-21.44
-12.38
-4.53
1.04
3.73
3.49
0.84
-3.32
-7.96
-12.28
-15.93
-19.11
-22.28
-25.90
-30.13
-34.77
-39.42
-43.68
-47.18
-49.66
-50.95
-51.00
-49.94
-48.11
-46.03
-44.24
-43.14
-42.72
-42.55
-41.91
-39.99
-36.21
-30.29
-22.22
-12.24
-0.74
11.66
24.09
35.47
44.81
51.47
55.43
57.27
57.82
57.84
57.64
57.08
55.80
53.54
50.29
46.30
41.87
37.17
32.26
27.13
21.80
16.45
11.21
6.13
1.06
-4.27
-9.99
-15.87
-21.20
-24.91
-25.95
-23.61
-17.84
-9.13
1.60
13.31
25.01
35.77
44.84
51.69
56.09
58.26
58.73
58.21
57.30
56.29
55.15
53.63
51.49
48.66
45.15
41.05
36.28
30.69
24.04
16.22
7.39
-2.05
-11.54
-20.55
-28.81
-36.31
-43.23
-49.82
-56.24
-62.51
-68.38
-73.34
-76.51
-76.82
-73.36
-65.75
-54.52
-41.13
-27.50
-15.46
-6.18
0.11
3.86
5.82
6.62
6.59
5.87
4.58
2.98
1.33
-0.20
-1.69
-3.46
-5.89
-9.17
-13.15
-17.28
-20.82
-23.11
-23.85
-23.21
-21.70
-19.83
-17.92
-15.94
-13.67
-10.82
-7.27
-3.09
1.44
5.93
9.82
12.60
13.77
13.11
10.72
7.13
3.14
-0.41
-2.85
-3.85
-3.46
-1.96
0.13
2.31
4.12
5.31
5.91
6.23
6.79
8.15
10.64
14.31
18.84
23.69
28.24
32.06
34.88
36.75
37.91
38.73
39.63
40.92
42.73
44.96
47.34
49.54
51.33
52.67
53.72
54.84
56.40
58.62
61.55
64.99
68.55
71.84
74.52
76.58
78.30
80.21
82.86
86.59
91.34
96.62
101.70
105.80
108.35
109.21
108.67
107.34
105.90
104.75
103.64
101.52
96.65
87.04
71.01
47.86
18.18
-16.19
-52.53
-87.97
-120.15
-147.72
-170.47
-189.09
-204.62
-217.97
-229.43
-238.57
-244.40
-245.77
-241.65
-231.44
-215.19
-193.59
-168.09
-140.71
-113.75
-89.33
-68.91
-52.95
-41.01
-32.03
-24.84
-18.54
-12.71
-7.25
-2.24
2.25
6.23
9.69
12.66
15.23
17.66
20.40
23.92
28.48
33.93
39.67
44.95
49.26
52.61
55.51
58.71
62.75
67.75
73.37
79.05
84.32
88.88
92.55
95.25
96.90
97.57
97.63
97.75
98.64
100.95
105.02
110.94
118.75
128.48
140.11
153.56
168.61
184.77
201.00
215.35
224.99
226.62
217.35
195.75
162.23
118.97
69.16
16.40
-35.49
-82.53
-120.61
-146.19
-157.45
-155.36
-143.87
-128.68
-115.33
-107.28
-105.01
-106.50
-108.49
-107.92
-102.93
-93.12
-79.21
-62.58
-44.73
-27.01
-10.50
3.94
15.63
24.03
28.77
29.34
24.98
14.73
-2.27
-26.10
-55.67
-88.84
-122.92
-155.48
-184.75
-209.61
-228.94
-241.32
-245.07
-239.02
-223.45
-200.43
-173.24
-145.20
-118.33
-92.75
-66.96
-38.76
-6.30
31.17
72.96
117.07
160.54
199.86
231.41
251.83
258.53
250.37
228.30
195.61
157.45
119.45
86.18
59.92
40.29
25.19
12.17
-0.34
-12.61
-24.19
-34.76
-44.69
-54.92
-66.28
-78.70
-91.11
-101.87
-109.51
-113.40
-113.90
-112.01
-108.90
-105.44
-101.96
-98.39
-94.56
-90.45
-86.32
-82.65
-79.88
-77.97
-76.36
-74.04
-70.01
-63.71
-55.31
-45.63
-35.83
-26.87
-19.26
-12.95
-7.56
-2.67
1.92
6.10
9.52
11.84
12.88
12.79
12.00
11.04
10.33
10.03
10.01
10.03
9.85
9.38
8.68
7.91
7.10
6.24
5.23
4.03
2.71
1.50
0.67
0.45
0.92
2.05
3.65
5.55
7.52
9.40
11.09
12.50
13.56
14.12
14.04
13.22
11.72
9.75
7.73
6.09
5.08
4.66
4.49
4.19
3.45
2.23
0.67
-0.96
-2.54
-4.04
-5.49
-6.84
-7.87
-8.29
-7.76
-6.09
-3.34
0.19
4.06
7.72
10.70
12.78
13.90
14.29
14.22
13.89
13.40
12.72
11.89
10.96
10.06
9.27
8.59
7.93
7.17
6.25
5.18
4.05
2.84
1.52
0.01
-1.72
-3.60
-5.45
-7.02
-8.01
-8.15
-7.27
-5.29
-2.42
0.96
4.33
7.22
9.37
10.79
11.67
12.22
12.59
12.81
12.83
12.70
12.52
12.38
12.31
12.18
11.83
11.12
10.02
8.62
7.07
5.42
3.67
1.70
-0.64
-3.49
-6.94
-10.97
-15.35
-19.66
-23.28
-25.61
-26.23
-25.18
-22.95
-20.24
-17.78
-15.95
-14.73
-13.79
-12.72
-11.24
-9.28
-6.95
-4.41
-1.82
0.83
3.62
6.75
10.35
14.46
18.93
23.43
27.54
30.86
33.08
34.04
33.71
32.17
29.70
26.74
23.86
21.60
20.33
20.02
20.32
20.70
20.71
20.16
19.16
17.95
16.71
15.37
13.66
11.22
7.81
3.44
-1.59
-6.79
-11.61
-15.66
-18.77
-20.96
-22.43
-23.39
-24.02
-24.44
-24.67
-24.68
-24.38
-23.66
-22.46
-20.76
-18.63
-16.18
-13.45
-10.49
-7.33
-4.06
-0.87
1.99
4.31
6.01
7.21
8.12
8.99
9.96
11.06
12.21
13.38
14.53
15.66
16.70
17.59
18.41
19.42
21.09
23.88
28.01
33.26
39.01
44.46
48.94
52.09
53.97
54.85
55.06
54.89
54.62
54.52
54.81
55.56
56.54
57.27
57.21
56.01
53.60
50.24
46.38
42.50
38.94
35.94
33.54
31.74
30.35
29.17
28.00
26.75
25.48
24.43
23.85
23.94
24.66
25.81
27.05
28.03
28.55
28.51
27.99
27.00
25.56
23.60
21.18
18.60
16.46
15.49
16.30
19.11
23.68
29.32
35.25
40.75
45.30
48.60
50.42
50.51
48.65
44.83
39.30
32.66
25.72
19.33
14.10
10.31
7.79
6.05
4.41
2.27
-0.77
-4.82
-9.67
-14.78
-19.40
-22.77
-24.34
-24.03
-22.25
-19.80
-17.54
-16.10
-15.65
-16.06
-17.02
-18.38
-20.21
-22.79
-26.35
-30.90
-36.08
-41.24
-45.56
-48.19
-48.55
-46.46
-42.34
-37.15
-32.19
-28.67
-27.34
-28.34
-31.17
-34.95
-38.80
-41.93
-43.85
-44.32
-43.33
-41.12
-38.19
-35.23
-32.94
-31.87
-32.21
-33.78
-36.14
-38.75
-41.13
-42.96
-44.10
-44.51
-44.23
-43.29
-41.80
-39.96
-38.04
-36.33
-35.09
-34.30
-33.74
-32.99
-31.59
-29.22
-25.77
-21.45
-16.67
-12.02
-8.08
-5.31
-3.95
-3.92
-4.87
-6.37
-8.11
-10.02
-12.24
-14.95
-18.05
-21.14
-23.57
-24.83
-24.76
-23.76
-22.54
-21.87
-22.20
-23.57
-25.74
-28.29
-30.81
-32.85
-33.87
-33.25
-30.49
-25.46
-18.71
-11.38
-4.85
-0.22
2.07
2.42
1.69
0.80
0.25
0.01
-0.36
-1.29
-2.93
-5.14
-7.53
-9.78
-11.73
-13.44
-15.01
-16.54
-18.02
-19.42
-20.76
-22.17
-23.78
-25.65
-27.59
-29.15
-29.66
-28.47
-25.14
-19.66
-12.51
-4.60
2.95
9.11
13.23
15.16
15.26
14.18
12.60
11.01
9.66
8.59
7.76
7.16
6.74
6.38
5.87
4.96
3.49
1.50
-0.83
-3.26
-5.75
-8.45
-11.55
-14.99
-18.22
-20.29
-20.11
-17.00
-11.11
-3.36
4.75
11.79
16.74
19.27
19.54
17.99
15.13
11.43
7.40
3.62
0.60
-1.30
-2.02
-1.85
-1.32
-1.04
-1.45
-2.71
-4.67
-6.94
-9.14
-11.10
-13.01
-15.40
-18.74
-23.09
-27.77
-31.52
-32.92
-31.14
-26.33
-19.61
-12.54
-6.49
-2.21
0.21
1.01
0.43
-1.42
-4.39
-8.11
-11.87
-14.85
-16.43
-16.50
-15.52
-14.34
-13.88
-14.66
-16.73
-19.67
-22.83
-25.54
-27.42
-28.48
-29.27
-30.46
-32.38
-34.77
-36.78
-37.43
-35.99
-32.45
-27.45
-22.29
-18.10
-15.34
-13.85
-13.12
-12.81
-12.87
-13.49
-14.80
-17.32
-20.90
-24.53
-26.67
-26.13
-22.68
-16.92
-10.22
-3.93
-0.36
-0.82
-4.79
-10.43
-15.81
-19.97
-22.47
-23.66
-23.63
-24.22
-26.30
-28.66
-28.71
-24.32
-15.33
-2.99
9.61
19.24
20.05
7.59
-19.01
-56.99
-101.55
-147.57
-189.62
-224.08
-231.00
-201.02
-142.70
-77.83
-25.57
7.01
18.52
18.00
11.73
3.51
-7.29
-21.22
-34.32
-41.90
-40.46
-29.53
-10.82
11.58
33.89
51.38
61.49
65.00
64.98
64.71
65.81
68.54
71.30
72.37
69.28
60.81
48.05
33.80
21.20
12.26
7.62
5.99
5.38
3.24
-1.88
-9.49
-17.47
-22.95
-23.56
-17.87
-5.95
11.27
31.99
54.26
76.41
97.04
115.09
129.69
140.20
146.21
147.69
144.99
138.77
129.94
119.49
108.43
97.66
87.79
79.16
71.82
65.57
60.05
54.79
49.23
42.76
35.01
26.02
16.49
7.69
1.22
-1.58
-0.21
4.83
12.12
19.88
26.51
31.08
33.36
33.65
32.43
30.06
26.79
22.75
18.13
13.13
8.01
2.91
-2.10
-7.01
-11.74
-16.22
-20.42
-24.46
-28.68
-33.63
-39.87
-47.71
-56.91
-66.50
-74.83
-80.02
-80.38
-75.06
-64.34
-49.56
-32.72
-15.87
-0.61
12.14
22.05
29.09
33.26
34.59
33.18
29.35
23.75
17.23
10.73
4.97
0.28
-3.46
-6.72
-10.17
-14.43
-19.86
-26.49
-33.85
-41.04
-46.77
-49.60
-48.20
-41.79
-30.44
-15.13
2.47
20.47
37.29
51.98
64.21
74.08
81.75
87.30
90.79
92.40
92.62
92.18
91.96
92.70
94.65
97.43
99.85
100.10
96.05
85.95
68.96
45.51
17.30
-13.17
-43.09
-69.86
-91.29
-105.76
-112.27
-110.70
-102.03
-88.32
-72.28
-56.48
-42.61
-31.11
-21.33
-12.11
-2.40
8.27
19.76
31.51
42.89
53.41
62.95
71.73
80.23
89.00
98.39
108.25
117.77
125.42
129.20
127.09
117.75
101.07
78.64
53.49
29.46
10.08
-2.50
-8.05
-8.11
-5.18
-1.65
0.88
1.86
1.47
0.14
-1.82
-4.15
-6.59
-8.71
-10.04
-10.32
-9.70
-8.69
-8.01
-8.16
-9.21
-10.76
-12.17
-12.84
-12.53
-11.43
-10.12
-9.37
-9.83
-11.78
-14.99
-18.64
-21.50
-22.25
-19.92
-14.26
-5.90
3.87
13.42
21.31
26.61
29.01
28.75
26.45
22.84
18.62
14.42
10.70
7.87
6.25
6.09
7.49
10.28
13.84
17.19
19.20
19.01
16.48
12.28
7.56
3.47
0.58
-1.28
-2.61
-3.81
-4.66
-4.34
-1.87
3.30
10.91
19.84
28.60
35.87
40.89
43.58
44.32
43.59
41.75
38.99
35.42
31.23
26.77
22.49
18.86
16.19
14.51
13.55
12.85
11.94
10.42
8.08
4.87
0.86
-3.90
-9.31
-15.19
-21.21
-26.76
-31.09
-33.48
-33.44
-30.96
-26.51
-20.93
-15.13
-9.93
-5.84
-3.09
-1.69
-1.53
-2.36
-3.83
-5.53
-7.04
-8.10
-8.60
-8.68
-8.57
-8.55
-8.86
-9.68
-11.10
-13.07
-15.40
-17.70
-19.51
-20.48
-20.47
-19.70
-18.48
-17.05
-15.29
-12.79
-9.04
-3.76
2.90
10.39
17.84
24.44
29.57
33.05
34.99
35.84
36.15
36.47
37.20
38.54
40.44
42.67
44.93
46.96
48.68
50.08
51.25
52.28
53.18
53.90
54.24
53.90
52.58
50.08
46.52
42.38
38.45
35.52
34.07
34.15
35.32
36.97
38.55
39.73
40.36
40.36
39.53
37.55
34.16
29.30
23.19
16.22
8.86
1.42
-5.85
-12.77
-19.13
-24.71
-29.37
-33.21
-36.56
-39.99
-44.09
-49.31
-55.80
-63.26
-70.95
-77.84
-82.90
-85.47
-85.61
-84.22
-82.86
-83.24
-86.62
-93.21
-102.06
-111.29
-118.76
-122.77
-122.49
-118.06
-110.34
-100.49
-89.73
-79.02
-68.86
-59.18
-49.28
-38.03
-24.24
-7.26
12.62
34.08
55.11
73.61
88.01
97.57
102.34
102.96
100.36
95.60
89.84
84.22
79.65
76.62
75.01
74.15
72.99
70.47
65.99
59.64
52.25
45.12
39.55
36.36
35.57
36.22
36.65
34.89
29.33
19.27
5.32
-10.72
-26.35
-39.19
-47.79
-52.05
-53.05
-52.42
-51.52
-50.92
-50.46
-49.70
-48.46
-47.05
-46.17
-46.63
-48.95
-53.24
-59.01
-65.36
-71.08
-74.86
-75.65
-72.92
-66.78
-57.93
-47.38
-36.13
-25.04
-14.77
-5.89
1.06
5.73
8.07
8.40
7.26
5.20
2.49
-0.98
-5.66
-12.04
-20.19
-29.42
-38.21
-44.54
-46.53
-43.21
-35.05
-23.76
-11.75
-1.14
6.94
12.53
16.37
19.31
21.70
23.24
23.29
21.21
16.77
10.15
1.95
-6.97
-15.64
-23.13
-28.78
-32.20
-33.46
-32.85
-30.78
-27.53
-23.28
-18.14
-12.28
-5.94
0.60
7.18
13.76
20.29
26.49
31.75
35.17
35.84
33.18
27.18
18.30
7.42
-4.36
-15.86
-25.89
-33.43
-37.78
-38.75
-36.65
-32.15
-26.04
-18.99
-11.44
-3.62
4.38
12.46
20.32
27.44
33.17
36.93
38.32
37.26
33.89
28.38
20.97
12.04
2.44
-6.51
-13.31
-16.79
-16.75
-14.00
-10.05
-6.33
-3.57
-1.67
0.05
2.21
5.00
8.02
10.45
11.32
9.70
4.89
-3.41
-14.74
-27.84
-40.82
-51.79
-59.35
-63.05
-63.20
-60.63
-56.17
-50.49
-44.03
-37.30
-31.00
-26.11
-23.70
-24.58
-29.02
-36.54
-46.04
-56.00
-64.91
-71.58
-75.35
-76.15
-74.39
-70.68
-65.70
-59.99
-53.92
-47.62
-41.02
-33.93
-26.28
-18.19
-9.91
-1.72
6.37
14.54
23.13
32.37
42.16
52.14
61.85
70.87
78.91
85.76
91.08
94.37
95.10
92.82
87.41
79.21
68.88
57.34
45.57
34.39
24.26
15.07
6.18
-3.39
-14.40
-27.00
-40.56
-53.81
-65.42
-74.48
-80.78
-84.62
-86.48
-86.63
-85.02
-81.50
-76.03
-68.88
-60.62
-51.90
-43.35
-35.56
-29.04
-24.20
-21.18
-19.75
-19.23
-18.76
-17.64
-15.73
-13.51
-11.77
-11.16
-11.72
-12.79
-13.48
-13.24
-12.31
-11.74
-12.84
-16.37
-21.96
-27.88
-31.42
-29.82
-21.27
-5.77
14.43
35.30
52.27
61.76
62.66
56.78
48.11
41.11
38.82
41.71
47.78
53.90
57.30
56.92
53.85
50.71
50.66
55.86
66.30
79.39
90.43
93.76
84.32
59.40
19.72
-30.04
-82.10
-127.25
-157.35
-167.58
-157.57
-130.97
-93.70
-51.49
-7.90
36.12
81.11
127.07
171.91
211.43
240.95
257.50
261.30
255.71
245.56
234.99
225.91
217.48
207.28
192.88
173.17
148.71
121.29
93.02
65.59
40.28
18.08
-0.00
-13.12
-21.00
-24.50
-25.80
-28.02
-34.24
-46.34
-64.18
-85.34
-106.00
-122.33
-131.83
-134.24
-131.28
-125.72
-120.18
-116.18
-113.75
-111.81
-108.82
-103.65
-96.04
-86.67
-76.83
-67.87
-60.68
-55.31
-51.12
-47.08
-42.13
-35.45
-26.62
-15.49
-2.26
12.56
28.35
44.68
61.83
80.59
101.67
124.50
146.24
161.80
164.88
150.12
115.42
63.31
1.01
-61.26
-112.99
-146.20
-157.33
-147.93
-123.71
-92.78
-63.55
-43.33
-37.52
-48.99
-77.60
-119.23
-165.39
-204.15
-223.30
-214.79
-178.51
-123.21
-63.54
-14.54
14.03
20.63
10.93
-6.21
-23.11
-35.91
-44.44
-50.02
-53.15
-52.38
-45.04
-29.01
-4.55
25.04
54.09
76.36
87.24
85.30
72.90
55.05
37.47
24.33
17.01
14.17
13.11
11.42
8.06
3.40
-1.60
-6.46
-11.68
-18.40
-27.62
-39.46
-52.81
-65.86
-76.86
-84.84
-89.85
-92.43
-92.95
-91.22
-86.88
-80.11
-72.17
-65.17
-61.02
-60.34
-61.87
-63.00
-61.12
-55.06
-45.62
-34.86
-24.73
-15.95
-8.01
0.01
8.43
16.69
23.56
28.05
30.53
32.99
38.68
50.85
71.72
102.06
141.24
187.40
237.56
287.87
333.98
371.40
395.86
404.03
394.97
370.71
335.47
294.01
250.27
206.48
163.23
119.74
74.60
27.27
-21.14
-68.43
-112.56
-152.23
-186.89
-212.19
-221.84
-213.46
-190.96
-162.03
-133.12
-107.66
-86.47
-69.01
-54.72
-43.38
-37.01
-38.59
-49.08
-66.08
-83.76
-94.00
-88.59
-62.21
-13.29
52.43
124.65
191.16
242.43
269.23
267.69
241.26
193.33
138.10
91.45
63.84
52.84
47.52
38.22
17.46
-15.84
-60.85
-113.16
-169.37
-213.86
-228.97
-202.48
-136.00
-47.13
40.37
101.33
132.54
136.17
118.36
85.49
42.58
-3.99
-52.00
-100.19
-146.90
-188.33
-223.27
-252.97
-282.45
-317.80
-344.78
-353.30
-341.41
-315.85
-283.50
-247.26
-204.98
-154.06
-93.69
-26.59
38.37
92.06
129.53
152.51
167.06
181.05
199.43
222.82
247.04
263.22
263.50
245.58
213.59
175.64
140.46
113.03
94.26
81.15
67.76
49.17
24.64
-3.78
-33.24
-57.04
-74.64
-88.12
-100.09
-112.45
-125.24
-135.78
-141.62
-141.51
-136.01
-127.93
-119.86
-113.14
-107.55
-105.17
-101.48
-93.44
-79.84
-61.15
-39.66
-17.48
4.21
27.67
51.81
76.47
100.30
121.58
138.50
149.14
152.72
149.87
142.38
131.88
120.58
108.97
95.85
79.83
59.53
34.16
3.52
-31.77
-70.07
-104.69
-129.89
-140.22
-132.62
-108.64
-74.51
-39.04
-10.30
7.28
14.29
14.11
10.88
7.32
3.84
-0.27
-5.48
-11.13
-15.80
-18.09
-18.14
-17.15
-16.84
-18.78
-23.39
-29.90
-36.77
-42.44
-45.89
-47.25
-47.31
-47.19
-47.71
-48.93
-50.19
-50.38
-48.46
-43.90
-37.16
-28.83
-19.89
-11.29
-3.58
3.08
8.82
13.85
18.27
21.99
24.81
26.54
27.08
26.67
25.72
24.75
24.21
24.55
25.99
28.55
31.99
35.94
39.81
42.93
44.51
43.70
39.91
32.62
21.56
6.67
-11.81
-33.32
-57.08
-82.17
-107.61
-132.09
-154.48
-173.87
-189.63
-201.46
-209.38
-213.72
-215.06
-214.19
-211.45
-207.21
-201.75
-195.18
-187.42
-178.18
-166.86
-152.44
-136.90
-120.97
-105.15
-89.74
-74.92
-60.84
-47.68
-35.72
-25.37
-17.13
-10.92
-6.47
-3.43
-1.38
-0.03
0.70
0.69
-0.35
-2.71
-6.09
-9.80
-12.91
-14.41
-13.51
-9.94
-3.94
3.81
12.54
21.97
32.66
45.58
61.79
81.90
105.69
132.06
159.40
185.98
210.60
233.67
256.15
279.15
303.56
330.04
359.02
390.32
422.39
451.86
475.66
490.15
492.64
482.42
461.29
433.16
402.73
373.96
349.29
332.38
325.33
328.36
339.49
355.09
371.01
383.93
391.98
394.76
396.55
401.24
411.07
425.73
442.99
459.84
473.59
482.01
459.96
392.35
276.80
126.96
-33.03
-179.43
-297.66
-383.55
-440.39
-474.47
-488.85
-486.10
-469.07
-441.87
-409.09
-375.77
-345.72
-321.23
-302.83
-287.83
-273.73
-259.24
-244.68
-229.95
-216.26
-204.36
-194.40
-185.86
-177.57
-169.03
-160.92
-154.89
-150.74
-150.64
-154.08
-161.72
-174.41
-193.36
-219.50
-253.18
-293.97
-338.07
-385.24
-437.38
-496.68
-549.96
-581.38
-576.08
-527.03
-456.95
-374.72
-288.52
-207.70
-135.32
-76.19
-32.74
-2.76
18.83
37.91
62.36
94.89
134.53
177.80
219.14
251.61
269.09
267.82
248.19
217.78
185.46
159.87
146.88
146.34
151.46
151.38
135.64
99.64
49.20
-3.48
-44.14
-62.72
-58.15
-38.22
-14.98
1.79
9.85
15.39
27.17
50.85
84.92
120.96
148.21
159.27
154.04
139.42
125.71
120.96
127.56
141.62
155.65
162.36
157.29
139.39
109.75
69.81
21.06
-33.92
-89.84
-138.05
-168.13
-171.18
-143.60
-89.58
-20.80
46.77
97.70
121.81
116.92
88.93
49.25
10.97
-15.23
-23.74
-14.78
6.84
33.98
59.50
77.79
85.25
80.40
63.84
38.20
7.94
-21.39
-44.54
-58.12
-61.65
-57.43
-49.30
-40.83
-33.86
-28.15
-22.00
-13.60
-2.25
11.23
24.77
35.87
42.33
42.95
37.80
28.50
18.15
10.99
11.46
22.88
46.01
78.37
114.67
148.42
173.97
188.11
190.50
183.04
168.73
150.71
132.18
116.74
108.33
110.12
122.77
143.03
164.04
177.38
176.08
157.69
125.27
86.01
47.64
15.25
-10.59
-33.05
-56.65
-85.63
-122.15
-166.30
-216.24
-268.51
-318.07
-358.75
-384.76
-392.96
-386.04
-371.71
-359.29
-354.64
-356.85
-358.27
-348.26
-318.36
-266.61
-200.40
-133.20
-79.37
-48.61
-43.56
-60.68
-92.91
-132.39
-163.23
-171.98
-151.87
-106.24
-45.47
19.06
79.29
130.49
169.77
195.61
206.21
202.58
187.29
164.26
137.17
107.98
76.29
39.46
-6.35
-60.90
-121.74
-182.73
-233.86
-264.58
-267.73
-242.80
-196.96
-142.32
-91.85
-54.88
-35.31
-28.55
-28.67
-31.08
-33.47
-35.51
-37.22
-38.16
-37.53
-34.61
-29.07
-21.64
-15.31
-12.16
-12.94
-16.87
-22.17
-27.17
-30.83
-32.95
-34.33
-35.77
-37.15
-37.43
-34.86
-27.56
-14.44
4.41
27.95
54.27
81.48
108.44
134.57
159.86
185.04
211.69
242.06
278.15
319.66
362.78
400.15
422.62
422.55
396.91
348.26
283.13
208.93
131.32
53.92
-19.93
-85.47
-136.07
-165.29
-169.90
-151.91
-117.94
-76.30
-33.67
6.63
43.67
76.85
103.95
121.07
124.57
113.47
90.80
62.87
36.83
18.00
8.19
5.59
6.50
7.37
6.36
3.65
0.67
-1.26
-1.96
-2.58
-5.05
-10.94
-20.40
-31.91
-42.84
-50.35
-52.47
-48.56
-39.22
-25.81
-9.85
7.24
24.05
38.98
50.17
55.85
54.98
47.80
36.01
22.27
9.39
-0.60
-6.93
-10.00
-10.87
-10.62
-10.00
-9.29
-8.46
-7.39
-5.99
-4.20
-1.96
0.77
3.90
7.16
10.07
12.03
12.58
11.42
8.60
4.38
-0.82
-6.54
-12.31
-17.65
-22.06
-25.04
-26.20
-25.38
-22.72
-18.71
-14.02
-9.34
-5.20
-1.88
0.64
2.59
4.26
5.90
7.69
9.71
12.04
14.64
17.37
19.85
21.52
21.76
20.21
16.95
12.61
8.09
4.25
1.48
-0.45
-2.24
-4.63
-8.09
-12.52
-17.44
-22.15
-26.01
-28.61
-29.72
-29.27
-27.38
-24.27
-20.26
-15.71
-10.90
-6.11
-1.66
1.88
3.82
3.46
0.57
-4.41
-10.30
-15.52
-18.70
-19.15
-17.05
-13.33
-9.22
-5.77
-3.57
-2.66
-2.68
-3.10
-3.50
-3.83
-4.31
-5.35
-7.28
-10.12
-13.52
-16.87
-19.60
-21.36
-22.20
-22.36
-22.12
-21.58
-20.74
-19.54
-18.01
-16.36
-14.80
-13.38
-11.90
-9.93
-7.11
-3.41
0.78
4.74
7.74
9.41
9.83
9.52
9.17
9.40
10.55
12.58
15.15
17.71
19.83
21.35
22.54
23.90
25.84
28.26
30.41
31.15
29.50
25.21
18.95
12.01
5.65
0.46
-3.84
-8.25
-13.93
-21.60
-31.14
-41.40
-50.21
-54.71
-52.15
-40.90
-21.46
3.11
27.81
47.07
56.59
54.62
42.37
23.32
1.94
-17.55
-32.10
-40.13
-41.55
-37.45
-29.76
-20.77
-12.59
-6.65
-3.44
-2.53
-2.88
-3.25
-2.71
-0.95
1.63
4.11
5.46
5.04
2.86
-0.29
-3.20
-4.72
-4.18
-1.69
1.99
5.71
8.30
8.91
7.19
3.34
-1.98
-7.81
-13.10
-16.92
-18.72
-18.42
-16.43
-13.53
-10.62
-8.42
-7.25
-6.99
-7.10
-6.89
-5.82
-3.79
-1.22
1.03
2.06
1.25
-1.48
-5.69
-10.73
-15.90
-20.67
-24.66
-27.72
-29.95
-31.86
-34.34
-38.38
-44.62
-52.81
-61.80
-69.81
-75.21
-77.13
-75.68
-71.68
-66.10
-59.62
-52.58
-45.12
-37.50
-30.10
-23.24
-16.97
-10.94
-4.62
2.47
10.41
18.89
27.26
34.76
40.66
44.40
45.71
44.89
42.88
41.09
40.92
43.01
46.83
50.96
53.71
54.20
52.73
50.53
48.92
48.51
48.91
49.13
48.34
46.34
43.65
41.27
40.22
41.38
45.39
52.41
61.73
71.32
77.89
77.77
68.30
49.24
23.21
-5.17
-31.10
-51.37
-65.15
-73.27
-76.82
-75.94
-69.77
-57.39
-39.04
-16.78
5.76
24.19
34.29
32.76
17.74
-10.54
-49.22
-92.94
-135.01
-169.53
-193.59
-208.20
-217.14
-224.38
-231.42
-236.22
-234.63
-222.63
-198.85
-165.33
-126.44
-87.14
-51.43
-21.96
-0.61
11.10
12.39
4.13
-10.29
-25.13
-34.01
-32.23
-18.37
5.45
35.15
66.96
99.05
131.80
166.44
203.02
239.14
270.23
291.17
298.51
291.91
274.06
249.36
222.22
195.39
169.86
145.59
122.58
101.55
83.74
70.12
60.67
54.21
48.88
43.09
36.07
28.08
20.22
13.79
9.77
8.47
9.33
11.11
12.22
11.35
7.93
2.42
-3.82
-9.15
-12.23
-12.57
-10.61
-7.33
-3.81
-0.80
1.41
2.87
3.78
4.37
4.94
5.89
7.63
10.46
14.37
18.93
23.38
26.90
28.82
28.90
27.34
24.62
21.35
17.97
14.69
11.43
7.96
4.05
-0.36
-5.19
-10.20
-15.15
-19.81
-23.98
-27.47
-30.05
-31.53
-31.85
-31.18
-29.89
-28.49
-27.44
-26.95
-26.97
-27.20
-27.34
-27.15
-26.62
-25.86
-25.01
-24.12
-23.10
-21.80
-20.13
-18.15
-16.13
-14.39
-13.23
-12.82
-13.13
-13.97
-15.07
-16.08
-16.62
-16.39
-15.23
-13.26
-10.87
-8.66
-7.20
-6.87
-7.70
-9.43
-11.68
-14.12
-16.60
-19.15
-21.82
-24.62
-27.39
-29.81
-31.47
-32.06
-31.45
-29.78
-27.45
-24.95
-22.64
-20.59
-18.63
-16.49
-14.14
-11.87
-10.08
-9.06
-8.63
-8.24
-7.27
-5.45
-3.05
-0.63
1.26
2.39
2.82
2.56
1.37
-1.25
-5.66
-11.71
-18.55
-24.91
-29.65
-32.16
-32.49
-31.08
-28.35
-24.48
-19.54
-13.73
-7.64
-2.27
1.24
2.05
-0.01
-4.35
-9.68
-14.30
-16.33
-14.21
-7.08
4.62
19.03
33.14
43.81
48.85
47.95
42.61
35.27
28.12
22.16
17.11
12.13
6.67
1.02
-3.94
-7.32
-8.92
-9.29
-9.37
-9.93
-11.20
-12.88
-14.48
-15.68
-16.49
-17.17
-17.95
-18.80
-19.39
-19.24
-18.00
-15.68
-12.67
-9.59
-7.06
-5.54
-5.18
-5.84
-7.04
-8.03
-7.93
-6.03
-2.12
3.23
8.79
13.06
14.84
13.68
9.98
4.65
-1.26
-7.01
-12.20
-16.59
-19.89
-21.76
-22.00
-20.76
-18.68
-16.63
-15.30
-14.88
-14.93
-14.74
-13.61
-11.15
-7.25
-1.98
4.45
11.55
18.32
23.46
25.75
24.80
21.38
17.16
13.89
12.44
12.39
12.36
10.95
7.57
2.72
-2.49
-7.13
-10.99
-14.51
-18.24
-22.26
-25.94
-28.24
-28.31
-25.96
-21.81
-16.91
-12.28
-8.45
-5.44
-2.90
-0.51
1.80
3.86
5.39
6.17
6.04
4.98
3.03
0.40
-2.52
-5.16
-7.01
-7.86
-8.02
-8.21
-9.26
-11.72
-15.62
-20.42
-25.26
-29.23
-31.50
-31.50
-28.99
-24.14
-17.63
-10.54
-4.09
0.74
3.60
4.81
5.13
5.47
6.47
8.51
11.68
15.89
20.78
25.59
29.13
30.11
27.72
22.19
14.96
8.07
3.36
1.51
1.92
3.16
3.92
3.73
3.16
3.35
5.18
8.76
13.26
17.39
19.97
20.47
19.14
16.71
14.06
11.86
10.39
9.77
10.05
11.38
13.96
17.82
22.64
27.85
32.81
37.12
40.77
43.94
46.75
49.02
50.23
49.88
47.75
44.05
39.30
34.01
28.53
23.01
17.60
12.68
9.00
7.66
9.85
16.34
27.02
40.39
53.69
63.50
66.94
62.84
52.44
38.96
26.27
17.24
12.59
10.94
9.98
8.02
4.92
2.05
1.31
3.91
9.56
16.76
23.42
27.93
29.52
28.23
24.61
19.60
14.59
11.52
12.04
16.40
22.30
25.08
19.52
2.61
-24.42
-55.90
-83.91
-101.66
-106.12
-98.78
-84.22
-67.60
-52.65
-41.11
-33.37
-29.59
-30.26
-35.94
-46.54
-60.64
-75.41
-87.18
-92.57
-89.70
-78.99
-63.14
-46.16
-31.89
-22.68
-18.75
-18.51
-19.51
-19.41
-16.71
-11.01
-2.97
5.94
13.93
19.35
21.40
20.46
18.00
15.84
15.25
16.30
17.84
18.27
16.56
12.85
8.30
4.39
2.03
1.18
1.00
0.39
-1.38
-4.46
-8.39
-12.47
-15.94
-18.15
-18.46
-16.24
-11.06
-2.99
7.03
17.24
25.46
29.91
30.01
26.67
21.95
18.14
16.71
17.70
19.86
21.35
20.88
18.39
14.98
12.30
11.63
13.14
15.84
18.25
19.09
17.98
15.39
12.04
8.38
4.80
2.31
3.15
10.24
25.39
47.23
70.38
86.98
90.23
77.90
53.78
25.97
2.95
-10.30
-13.83
-11.42
-7.46
-4.29
-1.64
2.06
7.65
13.93
18.11
17.66
12.00
3.14
-5.10
-9.22
-7.98
-3.09
1.58
2.00
-3.91
-15.34
-28.99
-40.89
-48.20
-50.26
-48.34
-44.51
-40.47
-36.89
-33.53
-29.91
-25.79
-21.43
-17.34
-13.98
-11.49
-9.67
-8.19
-6.83
-5.59
-4.52
-3.59
-2.50
-0.72
2.32
7.01
13.34
20.82
28.58
35.59
40.85
43.71
43.97
41.99
38.47
34.18
29.64
24.97
19.96
14.30
7.91
1.02
-5.86
-12.15
-17.49
-21.73
-24.92
-27.16
-28.59
-29.35
-29.64
-29.62
-29.34
-28.54
-26.80
-23.70
-19.24
-14.03
-9.23
-6.21
-5.97
-8.76
-13.94
-20.22
-26.20
-30.71
-33.17
-33.54
-32.17
-29.55
-26.16
-22.43
-18.72
-15.40
-12.77
-11.03
-10.21
-10.14
-10.56
-11.23
-11.97
-12.73
-13.53
-14.32
-14.96
-15.15
-14.51
-12.72
-9.58
-5.19
0.03
5.41
10.09
13.24
14.27
13.00
9.78
5.37
0.80
-2.99
-5.37
-6.21
-5.85
-4.96
-4.29
-4.44
-5.70
-8.04
-11.15
-14.55
-17.68
-20.05
-21.33
-21.48
-20.72
-19.40
-17.81
-16.04
-13.86
-10.89
-6.78
-1.43
4.89
11.60
17.92
23.10
26.58
28.12
27.77
25.90
23.06
19.87
16.92
14.61
13.14
12.41
12.14
11.95
11.51
10.63
9.33
7.85
6.46
5.44
4.90
4.86
5.15
5.54
5.76
5.60
5.00
4.03
2.96
2.12
1.85
2.27
3.37
5.01
7.01
9.22
11.49
13.63
15.38
16.49
16.82
16.45
15.68
14.93
14.58
14.82
15.60
16.68
17.72
18.36
18.26
17.17
14.98
11.75
7.71
3.21
-1.35
-5.59
-9.25
-12.17
-14.29
-15.60
-16.13
-15.98
-15.27
-14.20
-12.95
-11.73
-10.70
-10.01
-9.77
-9.99
-10.59
-11.38
-12.08
-12.41
-12.23
-11.51
-10.43
-9.21
-8.06
-7.11
-6.37
-5.77
-5.25
-4.80
-4.50
-4.43
-4.60
-4.93
-5.25
-5.38
-5.21
-4.78
-4.25
-3.80
-3.51
-3.25
-2.77
-1.78
-0.10
2.27
5.10
8.07
10.86
13.26
15.17
16.56
17.47
17.91
17.96
17.67
17.10
16.23
14.98
13.22
10.85
7.87
4.41
0.65
-3.24
-7.11
-10.84
-14.35
-17.52
-20.26
-22.46
-24.01
-24.81
-24.83
-24.17
-23.10
-22.09
-21.68
-22.31
-24.14
-27.00
-30.43
-33.86
-36.72
-38.61
-39.34
-38.92
-37.57
-35.63
-33.48
-31.43
-29.64
-28.11
-26.73
-25.33
-23.73
-21.68
-18.95
-15.33
-10.72
-5.25
0.81
7.12
13.47
19.83
26.36
33.23
40.42
47.67
54.48
60.22
64.32
66.41
66.32
64.19
60.35
55.32
49.70
44.11
39.06
34.88
31.72
29.55
28.25
27.67
27.63
27.88
28.15
28.11
27.50
26.13
23.98
21.19
17.89
14.24
10.35
6.34
2.39
-1.24
-4.29
-6.61
-8.24
-9.40
-10.44
-11.64
-13.16
-15.04
-17.15
-19.29
-21.16
-22.43
-22.75
-21.82
-19.48
-15.73
-10.79
-5.00
1.18
7.28
12.85
17.55
21.18
23.70
25.17
25.68
25.24
23.82
21.39
18.09
14.27
10.51
7.33
5.09
3.77
3.06
2.49
1.70
0.59
-0.73
-2.04
-3.16
-4.09
-4.97
-5.90
-6.90
-7.86
-8.62
-9.07
-9.28
-9.42
-9.74
-10.42
-11.50
-12.86
-14.32
-15.67
-16.81
-17.71
-18.47
-19.17
-19.84
-20.41
-20.72
-20.57
-19.80
-18.41
-16.57
-14.57
-12.76
-11.42
-10.66
-10.42
-10.53
-10.72
-10.81
-10.70
-10.38
-9.87
-9.25
-8.57
-7.89
-7.28
-6.83
-6.52
-6.30
-6.04
-5.61
-4.93
-4.02
-2.98
-1.96
-1.08
-0.40
0.12
0.62
1.25
2.11
3.20
4.40
5.50
6.28
6.59
6.41
5.85
5.03
4.11
3.16
2.26
1.46
0.82
0.34
-0.08
-0.60
-1.40
-2.53
-3.90
-5.27
-6.41
-7.17
-7.61
-7.89
-8.23
-8.75
-9.48
-10.30
-11.04
-11.48
-11.42
-10.68
-9.20
-7.07
-4.56
-2.04
0.07
1.47
2.12
2.11
1.73
1.20
0.70
0.27
-0.14
-0.53
-0.89
-1.12
-1.10
-0.80
-0.24
0.48
1.24
1.92
2.39
2.52
2.19
1.34
0.04
-1.44
-2.76
-3.62
-3.89
-3.64
-3.02
-2.08
-0.65
1.65
5.23
10.14
15.95
21.66
25.95
27.62
26.04
21.38
14.67
7.43
1.26
-2.68
-3.84
-2.43
0.74
4.49
7.60
9.16
8.93
7.39
5.60
4.77
5.59
7.91
10.70
12.67
12.80
10.99
7.99
4.96
2.94
2.28
2.68
3.53
4.27
4.58
4.39
3.64
2.33
0.53
-1.45
-3.01
-3.52
-2.63
-0.59
1.83
3.59
3.93
2.64
0.14
-2.82
-5.46
-7.18
-7.58
-6.51
-4.11
-0.92
2.11
3.91
3.67
1.26
-2.68
-6.91
-10.17
-11.67
-11.33
-9.60
-7.07
-4.17
-1.13
1.88
4.55
6.27
6.40
4.53
0.75
-4.27
-9.47
-13.78
-16.39
-17.01
-15.80
-13.25
-9.90
-6.27
-2.76
0.31
2.64
3.99
4.22
3.42
1.92
0.26
-0.99
-1.43
-0.99
0.03
1.11
1.68
1.35
0.02
-2.13
-4.70
-7.19
-9.18
-10.40
-10.84
-10.71
-10.40
-10.30
-10.66
-11.55
-12.86
-14.35
-15.83
-17.21
-18.55
-20.07
-22.14
-25.09
-29.11
-34.03
-39.18
-43.40
-45.22
-43.37
-37.17
-26.84
-13.52
1.06
15.04
27.00
36.15
42.40
46.11
47.78
47.88
46.63
44.14
40.41
35.59
29.93
23.85
17.88
12.47
7.96
4.41
1.71
-0.42
-2.26
-4.01
-5.81
-7.75
-9.90
-12.27
-14.71
-16.85
-18.18
-18.17
-16.58
-13.61
-9.80
-5.85
-2.18
1.25
4.95
9.54
15.39
22.26
29.32
35.41
39.49
40.99
39.92
36.67
31.77
25.59
18.28
9.93
0.78
-8.63
-17.59
-25.42
-31.75
-36.61
-40.40
-43.53
-46.19
-48.17
-48.95
-47.98
-45.00
-40.25
-34.40
-28.38
-23.03
-18.83
-15.88
-13.89
-12.44
-11.08
-9.48
-7.37
-4.50
-0.63
4.36
10.23
16.35
21.73
25.30
26.32
24.65
20.76
15.50
9.76
4.18
-0.92
-5.45
-9.30
-12.28
-14.08
-14.46
-13.34
-10.86
-7.33
-3.05
1.72
6.82
12.06
17.20
21.88
25.72
28.40
29.80
30.03
29.46
28.52
27.67
27.23
27.32
27.90
28.78
29.72
30.47
30.80
30.54
29.53
27.70
25.14
22.08
18.96
16.23
14.22
13.01
12.37
11.85
11.02
9.65
7.78
5.71
3.82
2.45
1.85
2.13
3.32
5.35
7.91
10.49
12.30
12.50
10.40
5.86
-0.56
-7.57
-13.50
-16.82
-16.66
-13.09
-7.13
-0.36
5.56
9.33
10.30
8.41
4.06
-2.11
-9.27
-16.44
-22.55
-26.63
-28.00
-26.55
-22.76
-17.50
-11.76
-6.38
-1.90
1.31
2.94
2.63
0.12
-4.56
-10.95
-18.10
-24.81
-29.84
-32.19
-31.30
-27.22
-20.66
-12.92
-5.58
-0.14
2.42
1.86
-1.40
-6.48
-12.39
-18.20
-23.09
-26.35
-27.35
-25.78
-21.71
-15.80
-9.12
-2.89
1.88
4.64
5.37
4.45
2.44
-0.10
-2.70
-4.99
-6.70
-7.66
-7.71
-6.79
-4.95
-2.25
1.12
4.91
8.79
12.40
15.40
17.56
18.78
19.06
18.48
17.17
15.27
13.12
11.14
9.84
9.58
10.46
12.21
14.27
15.98
16.80
16.43
14.87
12.33
9.17
5.81
2.63
-0.08
-2.21
-3.86
-5.26
-6.71
-8.50
-10.76
-13.51
-16.70
-20.25
-24.09
-28.18
-32.44
-36.79
-41.06
-45.07
-48.59
-51.33
-52.94
-53.02
-51.28
-47.67
-42.47
-36.31
-29.95
-24.08
-19.06
-14.92
-11.43
-8.34
-5.52
-3.01
-0.87
0.91
2.45
3.91
5.42
6.97
8.36
9.30
9.45
8.55
6.45
3.15
-1.15
-6.02
-10.88
-15.05
-17.93
-19.17
-18.79
-17.08
-14.57
-11.78
-9.13
-6.87
-4.99
-3.30
-1.44
0.97
4.19
8.17
12.43
16.16
18.57
19.19
18.25
16.56
15.17
14.84
15.56
16.60
16.87
15.56
12.65
8.94
5.64
3.77
3.60
4.54
5.55
5.65
4.42
2.21
-0.08
-1.51
-1.43
0.34
3.56
7.79
12.56
17.38
21.68
24.76
25.78
24.01
19.12
11.44
2.03
-7.47
-15.34
-20.32
-22.02
-21.06
-18.78
-16.71
-15.88
-16.44
-17.68
-18.41
-17.60
-14.82
-10.47
-5.49
-1.07
1.90
2.97
2.25
0.26
-2.23
-4.36
-5.43
-5.04
-3.31
-0.88
1.20
1.90
0.59
-2.63
-6.87
-10.83
-13.23
-13.36
-11.31
-7.95
-4.53
-2.27
-1.96
-3.78
-7.37
-12.00
-16.82
-21.09
-24.27
-26.08
-26.49
-25.76
-24.34
-22.82
-21.66
-21.01
-20.55
-19.55
-17.14
-12.69
-6.17
1.81
10.16
17.66
23.34
26.71
27.70
26.56
23.69
19.63
14.99
10.44
6.49
3.41
1.14
-0.70
-2.54
-4.68
-7.11
-9.49
-11.28
-11.90
-10.96
-8.32
-4.19
0.92
6.36
11.49
15.85
19.32
22.02
24.15
25.82
26.97
27.45
27.18
26.37
25.44
24.92
25.05
25.66
26.21
25.99
24.49
21.53
17.24
11.96
6.00
-0.33
-6.67
-12.54
-17.29
-20.25
-20.86
-18.78
-14.09
-7.22
1.00
9.46
17.04
22.74
26.02
26.84
25.68
23.27
20.39
17.61
15.27
13.49
12.34
11.85
12.02
12.68
13.50
14.02
13.82
12.68
10.69
8.16
5.39
2.54
-0.52
-3.96
-7.82
-11.79
-15.15
-16.99
-16.56
-13.68
-8.88
-3.32
1.65
5.05
6.67
7.05
7.19
7.92
9.43
11.18
12.26
11.88
9.83
6.63
3.22
0.64
-0.46
0.01
1.56
3.33
4.46
4.46
3.36
1.67
0.02
-1.23
-2.19
-3.29
-4.89
-6.81
-8.26
-8.06
-5.21
0.55
8.58
17.45
25.51
31.37
34.32
34.45
32.44
29.19
25.42
21.47
17.25
12.60
7.58
2.71
-1.06
-2.73
-1.60
2.34
8.50
15.76
22.83
28.41
31.36
30.86
26.53
18.61
7.89
-4.38
-16.72
-27.72
-36.22
-41.49
-43.24
-41.63
-37.12
-30.39
-22.20
-13.30
-4.44
3.64
10.25
14.84
17.16
17.29
15.57
12.45
8.31
3.42
-1.94
-7.25
-11.72
-14.44
-14.69
-12.40
-8.28
-3.72
-0.27
1.01
-0.12
-2.95
-6.29
-8.97
-10.36
-10.51
-9.99
-9.43
-9.20
-9.26
-9.21
-8.53
-6.80
-3.90
-0.02
4.28
8.29
11.38
13.23
14.04
14.40
15.08
16.65
19.29
22.78
26.69
30.56
33.98
36.56
37.76
36.94
33.48
27.10
18.07
7.26
-3.99
-14.27
-22.41
-27.76
-30.31
-30.54
-29.22
-27.13
-24.84
-22.60
-20.39
-18.06
-15.46
-12.58
-9.64
-7.05
-5.28
-4.66
-5.20
-6.50
-7.91
-8.75
-8.60
-7.46
-5.69
-3.84
-2.39
-1.57
-1.33
-1.44
-1.58
-1.47
-0.94
-0.06
0.95
1.84
2.46
2.94
3.66
5.02
7.22
10.05
12.94
15.26
16.58
16.80
16.15
14.94
13.43
11.70
9.75
7.54
5.06
2.34
-0.51
-3.30
-5.76
-7.57
-8.52
-8.61
-7.99
-6.90
-5.56
-4.01
-2.24
-0.23
1.96
4.17
6.31
8.35
10.30
12.05
13.42
14.11
13.99
13.16
11.95
10.70
9.54
8.27
6.51
4.02
0.87
-2.44
-5.26
-7.09
-7.84
-7.80
-7.43
-7.07
-6.79
-6.41
-5.69
-4.52
-3.03
-1.52
-0.32
0.33
0.37
-0.14
-1.11
-2.49
-4.27
-6.41
-8.76
-11.05
-12.96
-14.21
-14.68
-14.40
-13.48
-12.04
-10.14
-7.84
-5.26
-2.70
-0.53
0.88
1.37
1.05
0.32
-0.34
-0.57
-0.20
0.66
1.78
2.93
3.93
4.72
5.23
5.41
5.20
4.54
3.41
1.76
-0.47
-3.41
-7.09
-11.41
-15.92
-19.92
-22.52
-22.92
-20.60
-15.48
-8.00
0.93
10.02
17.83
23.05
24.83
23.02
18.21
11.47
4.04
-2.99
-8.93
-13.41
-16.36
-17.80
-17.85
-16.70
-14.60
-11.88
-8.84
-5.77
-2.88
-0.36
1.56
2.65
2.71
1.71
-0.18
-2.54
-4.82
-6.48
-7.15
-6.73
-5.36
-3.44
-1.50
-0.08
0.38
-0.25
-1.70
-3.36
-4.39
-4.05
-1.98
1.67
6.34
11.33
15.94
19.74
22.51
24.15
24.70
24.24
22.98
21.18
19.17
17.32
16.05
15.89
17.37
20.88
26.42
33.36
40.54
46.48
49.85
49.84
46.32
39.95
32.01
24.18
18.15
15.27
16.16
20.50
26.99
33.71
38.51
39.63
36.16
28.40
17.89
7.19
-0.76
-3.50
0.20
9.76
22.90
36.31
46.69
51.78
50.93
45.16
36.57
27.56
19.99
14.80
11.95
10.75
10.32
10.02
9.74
9.90
11.36
15.15
22.06
32.14
44.27
56.04
64.21
65.63
58.42
42.75
20.78
-4.08
-28.44
-50.08
-68.28
-83.52
-96.73
-108.50
-118.73
-126.48
-129.76
-125.47
-109.91
-80.17
-36.31
16.79
69.35
108.95
124.72
111.61
72.51
17.24
-41.29
-91.66
-127.15
-146.31
-151.36
-145.79
-132.69
-114.53
-93.75
-73.31
-56.45
-45.79
-42.12
-44.08
-48.45
-51.53
-50.56
-44.77
-35.37
-24.84
-15.72
-9.48
-6.11
-4.37
-2.54
0.61
5.30
10.61
15.05
17.31
16.99
14.73
12.06
10.66
11.80
16.02
23.12
32.38
42.67
52.47
59.93
63.29
61.60
55.66
48.37
44.06
46.84
58.59
77.87
100.24
120.14
133.03
136.88
132.24
121.01
104.95
84.89
60.97
33.55
4.05
-24.98
-50.67
-70.88
-85.07
-94.18
-100.05
-104.48
-108.63
-112.94
-117.46
-122.24
-127.59
-133.94
-141.44
-149.53
-156.67
-160.51
-158.58
-149.07
-131.63
-107.85
-81.00
-55.20
-34.15
-19.91
-12.27
-9.12
-7.38
-4.36
1.41
9.92
20.14
30.84
41.05
50.30
58.32
64.72
68.81
69.83
67.32
61.47
53.15
43.73
34.56
26.59
20.14
14.96
10.52
6.39
2.49
-0.93
-3.53
-5.09
-5.69
-5.65
-5.39
-5.24
-5.28
-5.40
-5.35
-4.90
-4.01
-2.88
-1.95
-1.73
-2.48
-4.01
-5.56
-6.00
-4.39
-0.44
5.20
11.08
15.64
17.81
17.53
15.63
13.37
11.77
11.18
11.35
11.76
12.02
12.10
12.20
12.43
12.59
12.17
10.69
8.03
4.68
1.65
0.03
0.53
3.19
7.26
11.48
14.58
15.76
15.07
13.50
12.50
13.32
16.24
20.32
23.74
24.70
22.28
16.86
9.83
2.91
-2.60
-6.13
-7.69
-7.53
-5.89
-3.13
0.08
2.69
3.50
1.65
-2.95
-9.51
-16.62
-22.70
-26.47
-27.23
-24.86
-19.73
-12.54
-4.09
4.77
13.29
20.86
27.12
31.92
35.31
37.40
38.23
37.64
35.38
31.33
25.76
19.47
13.72
9.82
8.64
10.17
13.40
16.57
17.75
15.46
9.25
-0.17
-11.04
-21.02
-27.75
-29.50
-25.85
-18.05
-8.93
-2.15
-0.94
-6.83
-18.86
-33.84
-47.51
-56.26
-58.40
-54.51
-46.75
-37.61
-28.91
-21.48
-15.58
-11.58
-10.45
-13.45
-21.57
-34.88
-52.17
-70.98
-88.13
-100.30
-104.44
-98.26
-80.67
-52.26
-15.53
25.33
65.22
99.06
122.52
132.33
126.48
104.79
69.70
26.94
-14.99
-46.76
-61.05
-55.08
-31.50
2.88
39.69
71.81
94.95
107.65
110.16
103.32
88.02
65.61
38.45
10.17
-14.90
-32.86
-41.37
-40.42
-32.32
-20.80
-9.73
-1.91
1.55
1.25
-1.37
-4.61
-7.37
-9.69
-13.10
-20.68
-36.52
-64.52
-106.59
-160.96
-221.34
-277.73
-318.67
-334.26
-318.72
-271.73
-198.41
-108.18
-13.08
74.39
143.44
187.24
204.33
198.61
177.67
149.89
121.78
96.80
76.08
60.19
50.42
49.05
57.74
76.08
101.01
127.52
150.39
165.80
172.06
169.46
159.50
144.22
125.93
107.11
90.20
77.21
69.04
65.17
63.60
61.41
55.52
43.69
25.26
1.53
-24.52
-49.10
-68.55
-80.42
-83.87
-79.72
-69.99
-57.16
-43.48
-30.59
-19.39
-10.29
-3.42
1.17
3.51
3.74
2.26
-0.35
-3.48
-6.66
-9.63
-12.30
-14.63
-16.51
-17.72
-17.97
-16.94
-14.35
-9.94
-3.57
4.64
14.21
24.34
34.03
42.32
48.49
52.07
52.80
50.58
45.54
38.20
29.59
21.11
14.18
9.80
8.17
8.67
10.21
11.62
12.09
11.30
9.42
6.79
3.83
0.81
-2.15
-5.10
-8.25
-11.75
-15.66
-19.82
-23.80
-27.10
-29.28
-30.14
-29.84
-28.80
-27.59
-26.70
-26.36
-26.52
-26.86
-27.02
-26.75
-26.05
-25.16
-24.31
-23.61
-22.95
-22.22
-21.51
-21.28
-22.28
-25.10
-29.82
-35.79
-41.83
-46.66
-49.45
-50.01
-48.70
-46.10
-42.62
-38.43
-33.51
-27.87
-21.75
-15.61
-9.95
-5.15
-1.25
2.01
5.07
8.41
12.24
16.53
20.87
24.61
27.01
27.51
25.90
22.45
17.88
13.09
8.87
5.68
3.62
2.48
2.01
2.08
2.79
4.41
7.22
11.34
16.59
22.46
28.18
32.93
36.00
37.02
36.01
33.34
29.53
25.06
20.30
15.54
11.05
7.18
4.22
2.26
1.05
0.07
-1.35
-3.73
-7.19
-11.47
-16.02
-20.23
-23.64
-25.99
-27.18
-27.22
-26.10
-23.90
-20.77
-17.02
-13.06
-9.34
-6.14
-3.55
-1.42
0.58
2.74
5.16
7.68
9.90
11.35
11.72
10.98
9.42
7.44
5.39
3.38
1.34
-0.90
-3.39
-6.03
-8.51
-10.49
-11.68
-12.00
-11.47
-10.24
-8.51
-6.49
-4.43
-2.61
-1.29
-0.65
-0.73
-1.36
-2.22
-2.90
-3.01
-2.37
-1.04
0.66
2.27
3.36
3.62
2.95
1.42
-0.72
-3.12
-5.27
-6.60
-6.58
-4.91
-1.69
2.57
7.13
11.25
14.50
16.81
18.37
19.42
20.07
20.25
19.79
18.58
16.70
14.38
11.97
9.76
7.95
6.56
5.52
4.71
4.03
3.43
2.93
2.50
2.10
1.63
0.97
0.07
-1.07
-2.32
-3.50
-4.44
-5.04
-5.25
-5.10
-4.66
-3.93
-2.94
-1.67
-0.18
1.42
2.93
4.18
5.00
5.38
5.41
5.28
5.21
5.36
5.80
6.45
7.16
7.78
8.22
8.56
8.97
9.68
10.88
12.59
14.63
16.67
18.33
19.37
19.78
19.85
20.16
21.42
24.31
29.21
35.91
43.47
50.34
54.77
55.44
51.97
45.25
37.18
30.08
25.95
25.86
29.77
36.73
45.43
54.57
63.23
70.69
76.29
79.20
78.58
73.85
65.07
53.09
39.31
25.18
11.66
-1.07
-13.46
-26.21
-39.73
-53.95
-68.23
-81.62
-93.09
-101.66
-106.61
-107.64
-105.10
-100.29
-95.57
-93.94
-98.26
-110.15
-129.01
-151.72
-173.33
-188.33
-192.43
-183.76
-163.23
-134.01
-100.30
-66.06
-34.22
-6.47
16.52
34.60
47.90
56.76
61.77
63.77
63.80
62.77
61.24
59.27
56.48
52.34
46.55
39.23
30.94
22.54
14.86
8.47
3.49
-0.23
-3.01
-4.96
-6.00
-5.81
-4.10
-0.92
3.28
7.66
11.33
13.57
14.12
13.14
11.12
8.62
6.09
3.76
1.64
-0.51
-3.02
-6.24
-10.37
-15.38
-20.92
-26.50
-31.52
-35.63
-38.78
-41.37
-44.08
-47.73
-52.93
-59.81
-67.76
-75.39
-81.03
-83.42
-82.38
-79.27
-76.62
-77.35
-83.04
-93.25
-104.91
-113.59
-115.17
-107.30
-89.94
-64.71
-33.88
0.57
37.13
74.70
112.50
150.13
187.69
225.42
262.70
296.94
323.17
334.95
326.75
296.60
247.77
188.51
129.81
82.41
53.72
46.01
56.09
76.56
98.11
112.23
113.80
101.68
78.63
49.59
19.72
-7.02
-28.50
-44.16
-54.40
-60.04
-62.11
-61.73
-60.05
-58.15
-56.85
-56.50
-57.03
-58.02
-59.00
-59.73
-60.33
-61.24
-62.93
-65.53
-68.46
-70.55
-70.45
-67.28
-61.25
-53.66
-46.51
-41.64
-40.10
-41.71
-45.27
-49.06
-51.44
-51.42
-48.76
-43.90
-37.58
-30.54
-23.30
-16.19
-9.52
-3.73
0.59
2.82
2.59
-0.14
-5.03
-11.54
-19.08
-27.09
-34.93
-41.91
-47.30
-50.52
-51.35
-50.05
-47.32
-43.98
-40.74
-37.90
-35.42
-32.99
-30.29
-27.14
-23.58
-19.81
-16.08
-12.64
-9.68
-7.30
-5.48
-4.02
-2.50
-0.45
2.39
5.78
8.82
10.24
8.91
4.51
-2.16
-9.36
-15.09
-17.83
-17.07
-13.31
-7.64
-1.21
5.11
10.80
15.53
19.04
21.15
21.88
21.58
20.85
20.28
20.30
21.01
22.27
23.91
25.78
27.78
29.82
31.68
33.02
33.41
32.49
29.99
25.90
20.49
14.37
8.34
3.21
-0.53
-3.00
-4.84
-6.98
-10.07
-14.11
-18.29
-21.33
-22.04
-19.85
-15.06
-8.64
-1.78
4.56
10.09
15.11
20.38
26.91
35.48
46.30
58.69
70.97
80.71
85.42
83.32
74.06
59.08
41.25
24.09
10.88
3.78
3.49
9.11
18.34
27.97
34.62
35.56
29.54
17.13
0.52
-17.10
-32.59
-43.61
-49.06
-49.10
-44.84
-37.84
-29.62
-21.48
-14.19
-8.14
-3.42
-0.04
2.01
2.62
1.71
-0.77
-4.83
-10.32
-16.94
-24.14
-31.16
-37.20
-41.61
-44.06
-44.69
-43.98
-42.64
-41.35
-40.65
-40.78
-41.62
-42.66
-43.12
-42.18
-39.43
-35.00
-29.65
-24.39
-20.03
-16.86
-14.65
-12.86
-11.00
-8.92
-6.77
-4.86
-3.48
-2.76
-2.66
-3.08
-3.89
-4.98
-6.22
-7.46
-8.49
-9.18
-9.50
-9.56
-9.58
-9.82
-10.45
-11.45
-12.57
-13.36
-13.33
-12.09
-9.50
-5.79
-1.54
2.52
5.74
7.72
8.44
8.14
7.16
5.83
4.27
2.49
0.46
-1.85
-4.35
-6.84
-9.17
-11.19
-12.85
-14.20
-15.32
-16.39
-17.72
-19.66
-22.58
-26.57
-31.36
-36.24
-40.36
-42.99
-43.96
-43.67
-42.96
-42.70
-43.38
-44.96
-46.85
-48.30
-48.70
-47.82
-45.82
-43.05
-39.79
-36.07
-31.61
-26.01
-19.14
-11.30
-3.26
3.96
9.57
13.23
15.20
16.22
17.27
19.34
23.16
28.95
36.08
43.12
48.16
49.61
46.95
41.22
34.75
30.22
29.56
33.23
40.15
48.25
55.21
59.16
59.10
55.28
49.36
44.19
42.98
47.98
59.26
74.25
88.64
98.12
100.11
94.68
84.03
71.14
58.40
46.99
37.30
29.59
24.47
22.71
24.58
29.30
35.04
39.62
41.34
39.70
35.44
29.95
24.65
20.26
16.71
13.32
9.24
3.93
-2.67
-10.11
-17.67
-24.63
-30.41
-34.80
-37.88
-39.98
-41.51
-42.85
-44.20
-45.53
-46.58
-46.96
-46.24
-44.16
-40.77
-36.46
-31.90
-27.77
-24.51
-22.19
-20.53
-19.14
-17.76
-16.41
-15.32
-14.74
-14.68
-14.90
-15.01
-14.65
-13.71
-12.31
-10.71
-9.14
-7.68
-6.29
-4.90
-3.52
-2.26
-1.23
-0.36
0.67
2.39
5.34
9.83
15.74
22.59
29.65
36.19
41.68
45.90
48.87
50.83
52.12
53.08
54.06
55.32
56.95
58.99
61.34
63.96
66.85
70.06
73.64
77.56
81.65
85.62
89.10
91.67
93.00
92.82
91.13
88.18
84.58
81.16
78.76
77.82
78.12
78.76
78.43
75.92
70.64
62.76
53.05
42.36
31.22
19.73
7.88
-4.02
-15.08
-23.98
-29.60
-31.64
-31.02
-29.47
-29.11
-31.44
-37.05
-45.64
-56.29
-67.95
-79.47
-89.74
-97.66
-102.49
-104.12
-103.25
-101.28
-99.68
-99.46
-100.75
-102.95
-105.21
-106.97
-108.29
-109.67
-111.78
-115.02
-119.44
-124.78
-130.67
-136.69
-142.39
-147.27
-150.77
-152.46
-152.03
-149.66
-145.90
-141.66
-137.91
-135.35
-134.15
-133.83
-133.44
-131.81
-127.95
-121.33
-111.97
-100.26
-86.72
-71.85
-55.88
-38.87
-20.71
-1.30
19.31
40.70
61.96
81.73
98.43
110.64
117.54
119.26
116.90
112.22
107.08
102.91
100.33
99.14
98.63
97.97
96.55
94.13
90.83
86.94
82.89
79.06
75.82
73.41
71.87
70.90
69.98
68.47
65.91
62.23
57.69
52.76
47.92
43.48
39.60
36.34
33.72
31.73
30.20
28.85
27.32
25.39
23.07
20.68
18.67
17.22
16.06
14.28
10.76
4.67
-4.00
-14.13
-23.73
-30.62
-33.28
-31.47
-26.31
-19.76
-13.74
-9.38
-6.76
-5.15
-3.74
-2.11
-0.49
0.58
0.69
-0.06
-1.00
-1.22
0.03
2.96
7.13
11.72
15.77
18.55
19.79
19.67
18.76
17.75
17.18
17.22
17.65
18.02
17.88
16.98
15.40
13.39
11.27
9.24
7.40
5.89
4.89
4.69
5.52
7.39
10.06
13.07
15.91
18.23
19.91
20.98
21.52
21.56
21.09
20.15
18.97
17.90
17.24
17.19
17.72
18.73
20.32
22.84
26.89
33.01
41.40
51.75
63.27
74.93
85.76
95.12
102.91
109.64
116.24
123.56
131.75
139.82
145.56
146.15
139.29
124.38
103.05
78.75
55.51
36.43
22.59
12.97
5.24
-3.07
-13.45
-26.01
-39.55
-51.93
-60.34
-61.57
-52.64
-32.05
-1.01
35.66
70.37
94.96
103.79
96.00
75.82
50.40
26.23
6.28
-10.57
-27.55
-46.98
-68.07
-87.15
-100.06
-104.81
-103.03
-98.86
-96.45
-97.50
-100.63
-102.59
-100.91
-95.67
-89.76
-87.34
-91.43
-102.33
-117.15
-130.58
-136.15
-128.10
-103.47
-63.72
-15.58
30.24
62.25
72.37
59.25
29.18
-6.14
-34.18
-46.48
-41.65
-25.16
-6.08
7.35
11.20
6.61
-1.96
-10.00
-15.47
-19.43
-24.30
-31.28
-38.46
-41.16
-34.46
-16.13
11.48
42.18
68.45
84.70
89.35
84.87
76.54
70.40
71.44
82.45
103.39
131.05
159.47
181.12
188.94
178.56
150.15
108.99
64.13
25.17
-1.42
-14.61
-18.69
-20.37
-24.98
-33.64
-43.21
-48.86
-47.51
-40.10
-31.14
-25.73
-26.38
-31.40
-36.73
-39.20
-39.08
-40.15
-46.84
-61.04
-80.35
-99.16
-111.25
-112.38
-101.77
-81.75
-56.98
-33.57
-18.61
-19.41
-41.91
-88.75
-157.56
-240.61
-326.36
-402.26
-457.67
-485.75
-483.99
-453.57
-398.04
-322.26
-231.80
-132.98
-33.04
59.91
137.92
194.87
228.63
241.76
240.63
232.82
224.24
217.49
212.09
206.19
198.31
188.21
176.43
163.54
149.93
136.65
126.17
121.75
125.53
136.27
148.46
154.18
146.47
122.44
83.95
35.71
-17.24
-70.80
-120.96
-162.37
-188.11
-191.97
-172.03
-133.07
-85.72
-42.36
-12.07
2.42
4.16
-1.15
-8.59
-15.75
-22.35
-28.76
-34.87
-40.18
-44.52
-48.64
-53.83
-60.98
-69.43
-76.32
-77.24
-67.71
-45.44
-11.83
27.57
64.32
89.52
96.87
85.08
58.40
25.18
-5.32
-26.30
-35.35
-34.33
-27.38
-18.38
-9.15
0.69
12.46
26.86
43.13
59.33
73.30
83.74
90.54
94.35
95.87
95.31
92.37
86.51
77.60
66.36
54.54
44.29
37.21
33.25
30.28
24.71
13.03
-6.35
-32.14
-60.55
-86.87
-107.37
-120.39
-126.19
-125.85
-120.25
-109.66
-94.34
-75.35
-55.04
-36.54
-22.76
-15.25
-13.76
-16.37
-20.53
-23.90
-25.11
-23.85
-20.62
-16.27
-11.47
-6.45
-1.03
5.08
11.98
19.30
26.20
31.59
34.51
34.44
31.43
26.11
19.46
12.59
6.44
1.56
-2.11
-5.24
-8.95
-14.42
-22.49
-33.18
-45.58
-57.86
-67.66
-72.73
-71.54
-63.83
-50.80
-34.83
-18.76
-5.09
4.72
10.48
12.97
13.38
12.77
11.77
10.70
9.78
9.26
9.39
10.26
11.67
13.26
14.70
15.91
17.17
18.96
21.78
25.94
31.42
37.79
44.32
50.11
54.35
56.62
57.17
56.83
56.76
57.98
60.89
65.10
69.70
73.56
75.86
76.29
75.00
72.37
68.78
64.46
59.59
54.28
48.71
43.10
37.70
32.67
28.10
23.99
20.25
16.73
13.35
10.08
7.02
4.36
2.24
0.68
-0.40
-1.09
-1.39
-1.14
-0.09
1.95
5.01
8.81
12.92
16.89
20.34
23.06
24.99
26.10
26.32
25.56
23.78
21.07
17.68
13.94
10.00
5.81
1.08
-4.55
-11.24
-18.85
-26.96
-35.09
-42.94
-50.54
-58.14
-66.07
-74.41
-82.92
-91.05
-98.00
-102.91
-105.01
-103.77
-99.00
-91.02
-80.61
-68.92
-57.13
-46.23
-36.74
-28.74
-21.97
-16.05
-10.59
-5.29
0.06
5.48
10.75
15.42
18.93
20.88
21.29
20.72
20.02
19.91
20.52
21.26
21.07
18.98
14.67
8.70
2.34
-2.95
-5.99
-6.16
-3.42
1.87
9.08
17.43
25.82
32.86
37.00
36.87
31.75
21.78
7.97
-8.12
-24.80
-40.61
-54.56
-66.07
-74.90
-80.99
-84.38
-85.19
-83.58
-79.84
-74.36
-67.61
-60.01
-51.84
-43.23
-34.25
-25.08
-16.18
-8.29
-2.20
1.54
2.84
2.07
-0.04
-2.66
-5.05
-6.60
-6.80
-5.23
-1.50
4.57
12.82
22.71
33.31
43.46
52.05
58.37
62.35
64.58
66.06
67.66
69.61
71.31
71.63
69.52
64.74
58.21
51.74
47.40
46.55
49.25
54.05
58.62
60.48
57.71
49.50
36.31
20.09
4.22
-6.94
-9.02
0.58
21.05
47.31
70.86
82.72
77.23
54.84
22.30
-9.81
-31.29
-35.96
-23.26
2.69
35.94
71.65
107.26
141.86
174.25
201.07
216.63
214.71
191.25
146.41
85.19
15.80
-53.04
-114.54
-164.57
-200.59
-220.18
-220.85
-201.31
-163.97
-116.13
-68.46
-30.90
-8.45
0.64
3.11
6.00
12.33
19.42
20.89
10.92
-11.97
-43.73
-76.66
-102.87
-117.60
-120.55
-115.28
-107.15
-101.01
-99.25
-101.46
-105.15
-107.26
-105.80
-100.77
-93.89
-87.08
-81.00
-74.60
-65.84
-53.25
-37.21
-20.27
-6.06
2.35
3.95
0.15
-5.87
-10.60
-11.56
-8.05
-1.18
6.66
12.60
14.14
9.62
-1.34
-17.76
-37.26
-56.38
-71.38
-79.06
-77.72
-67.62
-50.79
-30.35
-9.37
10.04
27.09
41.97
55.11
66.50
75.48
81.05
82.48
79.75
73.61
65.17
55.37
44.67
33.22
21.17
9.21
-1.44
-9.30
-13.24
-13.01
-9.36
-3.77
2.15
7.21
10.99
13.79
16.21
18.73
21.27
23.31
24.12
23.11
20.19
15.72
10.38
4.91
-0.09
-4.16
-6.90
-8.05
-7.50
-5.42
-2.31
1.16
4.50
7.63
11.01
15.43
21.65
29.87
39.57
49.64
58.84
66.28
71.79
75.70
78.53
80.45
81.00
79.25
74.26
65.68
54.13
41.09
28.40
17.60
9.37
3.46
-1.19
-5.94
-11.96
-19.84
-29.39
-39.51
-48.21
-53.04
-51.85
-43.90
-30.55
-15.06
-1.62
6.35
7.42
2.48
-5.87
-14.66
-21.58
-25.40
-25.67
-22.33
-15.53
-5.79
5.72
17.30
27.28
34.73
39.80
43.48
46.78
50.14
53.20
55.46
57.20
60.00
66.24
77.56
93.39
110.27
122.85
125.93
116.63
95.41
65.38
30.69
-5.19
-40.03
-72.22
-99.77
-119.87
-129.73
-127.98
-115.87
-97.20
-76.88
-59.07
-45.72
-36.40
-29.28
-22.84
-16.90
-12.76
-12.16
-16.06
-23.83
-33.43
-42.33
-48.64
-51.82
-52.67
-52.73
-53.60
-56.28
-60.91
-66.88
-73.01
-77.95
-80.60
-80.37
-77.30
-71.87
-64.67
-56.16
-46.71
-36.76
-27.06
-18.58
-12.15
-8.12
-6.14
-5.38
-4.97
-4.46
-3.90
-3.67
-4.08
-5.06
-6.12
-6.56
-5.80
-3.59
-0.08
4.26
8.81
12.96
16.19
18.20
18.82
18.05
15.99
12.81
8.77
4.18
-0.58
-5.12
-9.12
-12.47
-15.21
-17.54
-19.63
-21.57
-23.29
-24.62
-25.38
-25.49
-25.00
-24.07
-22.88
-21.52
-19.87
-17.54
-13.95
-8.52
-0.81
9.25
21.25
34.41
47.72
60.15
70.79
78.92
84.14
86.50
86.59
85.25
83.30
81.15
78.75
75.83
72.35
68.78
65.96
64.55
64.48
64.71
63.70
60.14
53.72
45.23
36.10
27.62
20.35
14.10
8.37
2.94
-1.80
-5.05
-6.02
-4.37
-0.56
4.39
9.41
13.81
17.52
20.95
24.64
28.78
33.01
36.57
38.66
38.98
38.05
37.09
37.70
41.12
47.72
56.86
67.21
77.29
86.10
93.48
100.01
106.68
114.51
124.20
135.97
149.41
163.17
174.98
181.88
180.91
170.24
149.87
121.68
88.69
53.73
18.07
-18.98
-59.35
-104.38
-153.05
-201.17
-242.36
-270.34
-281.63
-276.96
-260.88
-239.79
-219.59
-203.91
-194.16
-190.73
-194.04
-204.34
-220.62
-239.81
-256.79
-265.82
-262.93
-247.49
-222.28
-191.90
-160.87
-132.33
-107.70
-87.15
-70.17
-55.03
-38.23
-14.91
19.50
66.87
125.05
188.20
248.89
300.46
338.23
359.37
362.22
346.00
311.41
261.84
203.86
145.84
95.17
55.85
27.74
7.67
-8.06
-21.63
-33.21
-41.90
-47.13
-49.25
-49.24
-48.23
-46.77
-44.55
-40.91
-35.42
-28.31
-20.65
-14.03
-10.06
-9.81
-13.32
-19.58
-26.89
-33.44
-37.95
-40.11
-40.48
-40.10
-39.88
-40.30
-41.41
-43.18
-45.74
-49.37
-54.15
-59.60
-64.58
-67.63
-67.60
-64.23
-58.31
-51.27
-44.50
-38.84
-34.41
-30.97
-28.39
-26.94
-27.05
-28.91
-32.02
-35.21
-37.06
-36.56
-33.53
-28.62
-22.81
-16.82
-10.87
-4.77
1.66
8.24
14.36
19.25
22.31
23.45
23.10
22.00
20.91
20.27
20.11
20.07
19.64
18.37
16.07
12.79
8.73
4.07
-0.99
-6.25
-11.34
-15.74
-18.97
-20.71
-21.01
-20.26
-19.02
-17.80
-16.92
-16.51
-16.56
-17.07
-18.09
-19.70
-21.98
-24.93
-28.46
-32.38
-36.41
-40.11
-43.04
-44.79
-45.22
-44.59
-43.52
-42.77
-42.91
-43.99
-45.41
-46.13
-45.00
-41.23
-34.63
-25.65
-15.20
-4.43
5.58
13.96
20.26
24.64
27.88
31.22
35.93
42.82
51.94
62.55
73.45
83.45
91.69
97.76
101.46
102.56
100.67
95.30
86.09
73.05
56.73
38.19
18.96
0.79
-14.59
-25.88
-32.45
-34.45
-32.72
-28.50
-23.03
-17.32
-11.98
-7.31
-3.48
-0.56
1.35
2.24
2.29
1.82
1.25
0.82
0.51
-0.06
-1.47
-4.23
-8.63
-14.65
-21.98
-30.22
-38.87
-47.38
-55.08
-61.26
-65.25
-66.66
-65.51
-62.17
-57.32
-51.63
-45.63
-39.66
-33.84
-28.24
-22.86
-17.69
-12.63
-7.55
-2.22
3.54
9.78
16.42
23.16
29.56
35.13
39.45
42.26
43.57
43.63
42.85
41.77
40.87
40.63
41.46
43.69
47.24
51.42
54.92
56.21
54.24
49.03
41.72
34.18
28.16
24.66
23.93
25.71
29.72
35.89
43.99
53.12
61.41
66.12
64.47
54.49
35.83
10.06
-19.61
-48.92
-73.43
-89.45
-94.70
-88.68
-72.59
-49.00
-21.37
6.41
30.62
48.20
57.41
58.26
52.70
44.17
36.71
33.74
36.96
45.96
58.50
71.50
82.21
89.10
92.08
92.07
90.14
86.93
82.46
76.43
68.86
60.40
52.19
45.35
40.42
37.04
34.10
30.23
24.51
16.90
8.29
0.19
-5.71
-8.11
-6.41
-0.71
8.24
19.33
31.29
42.70
52.11
57.97
58.87
53.73
42.28
25.27
4.50
-17.54
-38.28
-55.71
-68.74
-77.27
-81.81
-83.22
-82.42
-80.50
-78.67
-78.06
-79.11
-80.91
-80.98
-76.01
-63.24
-41.90
-13.86
16.94
45.89
69.32
85.29
93.50
94.52
89.17
78.47
63.97
47.85
32.51
19.57
9.13
-0.27
-10.61
-23.09
-37.27
-51.18
-62.33
-69.06
-71.33
-70.70
-69.49
-69.83
-72.77
-77.83
-82.91
-84.67
-79.59
-65.28
-41.77
-11.96
19.11
45.90
64.26
72.58
71.77
64.17
52.27
37.93
22.39
6.80
-7.33
-18.32
-24.78
-26.36
-23.86
-18.91
-13.28
-8.21
-4.09
-0.63
2.71
6.15
9.35
11.47
11.69
9.56
5.31
-0.18
-5.73
-10.30
-13.34
-14.90
-15.56
-16.12
-17.33
-19.60
-22.77
-26.24
-29.06
-30.31
-29.38
-26.18
-21.21
-15.34
-9.54
-4.52
-0.52
2.63
5.33
7.94
10.53
12.88
14.65
15.59
15.65
15.02
13.91
12.33
10.01
6.52
1.55
-4.79
-11.88
-18.66
-23.95
-26.72
-26.37
-22.84
-16.60
-8.55
0.20
8.59
15.77
21.32
25.15
27.47
28.57
28.76
28.26
27.23
25.78
23.97
21.79
19.17
16.07
12.55
8.77
4.94
1.30
-2.02
-5.00
-7.61
-9.82
-11.48
-12.34
-12.15
-10.78
-8.26
-4.82
-0.85
3.24
7.00
10.09
12.21
13.13
12.72
10.96
7.96
4.04
-0.34
-4.69
-8.59
-11.80
-14.28
-16.17
-17.70
-19.10
-20.53
-21.93
-23.09
-23.60
-22.93
-20.62
-16.40
-10.31
-2.76
5.54
13.65
20.62
25.63
28.21
28.40
26.76
24.25
21.89
20.46
20.20
20.81
21.74
22.49
22.85
22.93
23.01
23.24
23.53
23.61
23.15
22.02
20.40
18.73
17.63
17.67
19.16
21.97
25.63
29.42
32.58
34.61
35.26
34.58
32.70
29.67
25.51
20.20
13.82
6.61
-1.06
-8.84
-16.44
-23.65
-30.32
-36.32
-41.55
-46.03
-49.91
-53.41
-56.60
-59.20
-60.60
-60.01
-56.86
-51.08
-43.18
-34.09
-24.69
-15.66
-7.32
0.19
6.62
11.58
14.61
15.41
14.10
11.30
7.94
4.97
3.04
2.34
2.65
3.55
4.66
5.80
6.97
8.19
9.38
10.26
10.44
9.61
7.57
4.38
0.24
-4.60
-9.84
-15.11
-19.95
-23.94
-26.81
-28.69
-30.09
-31.72
-34.06
-37.02
-39.84
-41.31
-40.35
-36.58
-30.62
-23.95
-18.24
-14.69
-13.52
-13.95
-14.63
-14.31
-12.34
-8.79
-4.24
0.60
5.28
9.65
13.78
17.74
21.42
24.57
26.87
28.15
28.46
28.04
27.25
26.45
25.84
25.47
25.22
24.92
24.39
23.52
22.19
20.33
17.88
14.95
11.81
9.02
7.21
6.93
8.40
11.43
15.52
20.10
24.69
28.97
32.78
36.02
38.63
40.45
41.21
40.50
37.92
33.35
27.12
20.11
13.42
7.95
3.89
0.65
-2.87
-7.59
-13.62
-20.01
-24.99
-26.65
-23.71
-16.05
-4.78
8.08
20.07
28.98
33.31
32.56
27.31
19.30
11.14
5.74
5.42
10.89
20.68
31.20
37.90
36.98
26.91
9.20
-12.28
-32.77
-48.46
-57.51
-60.16
-57.88
-52.30
-44.57
-35.32
-25.12
-14.95
-6.12
0.08
3.09
3.35
2.13
0.91
0.67
1.49
2.73
3.45
3.03
1.40
-0.94
-3.32
-5.19
-6.40
-7.19
-8.07
-9.63
-12.27
-16.06
-20.58
-25.00
-28.28
-29.51
-28.26
-24.71
-19.61
-13.94
-8.57
-3.87
0.19
3.94
7.58
11.05
13.97
15.86
16.42
15.68
14.10
12.32
10.99
10.50
10.83
11.57
12.07
11.65
9.89
6.80
2.96
-0.57
-2.54
-1.84
2.02
8.62
16.55
23.71
27.94
27.73
22.87
14.66
5.49
-2.06
-6.13
-6.30
-3.54
0.31
3.47
4.67
3.31
-0.80
-7.62
-16.84
-27.52
-38.07
-46.49
-51.20
-51.72
-48.88
-44.41
-39.95
-36.28
-33.12
-29.62
-25.19
-20.05
-15.12
-11.56
-9.97
-10.04
-10.75
-10.97
-10.27
-9.35
-9.82
-13.50
-21.24
-32.26
-44.06
-53.11
-56.07
-50.84
-37.19
-16.71
7.52
31.59
51.47
63.75
66.42
59.32
44.27
24.56
4.08
-13.60
-25.82
-30.96
-28.32
-18.01
-1.04
20.60
43.97
65.85
83.64
96.20
104.24
109.84
115.28
122.11
130.49
139.36
146.96
151.57
151.65
146.06
134.44
118.13
101.12
89.81
90.89
108.16
139.58
176.90
208.25
222.97
215.79
188.47
147.62
100.61
51.82
1.76
-50.92
-106.08
-160.10
-206.56
-239.21
-255.07
-255.76
-246.05
-231.04
-213.62
-193.74
-169.82
-141.12
-109.29
-78.21
-52.25
-34.24
-24.34
-20.49
-19.70
-19.41
-18.15
-15.43
-11.38
-6.33
-0.82
4.47
8.88
12.01
13.92
15.13
16.25
17.46
18.31
17.66
14.14
6.72
-4.65
-18.79
-33.47
-46.06
-54.39
-57.37
-55.28
-49.49
-41.81
-33.88
-26.76
-20.97
-16.70
-14.01
-12.88
-13.06
-14.04
-15.05
-15.35
-14.48
-12.46
-9.71
-6.87
-4.46
-2.74
-1.70
-1.14
-0.90
-0.95
-1.43
-2.43
-3.85
-5.35
-6.39
-6.50
-5.48
-3.50
-0.93
1.81
4.48
7.02
9.43
11.60
13.18
13.63
12.50
9.60
5.17
-0.30
-6.20
-12.03
-17.37
-21.89
-25.22
-27.05
-27.43
-26.95
-26.76
-28.20
-32.17
-38.58
-46.24
-53.28
-57.93
-59.20
-57.17
-52.75
-47.15
-41.43
-36.25
-31.87
-28.33
-25.46
-22.90
-20.10
-16.33
-10.94
-3.49
5.99
17.07
29.00
40.85
51.72
60.81
67.54
71.54
72.74
71.42
68.21
64.00
59.76
56.14
53.31
50.78
47.71
43.34
37.43
30.40
23.14
16.56
11.22
7.33
4.89
4.07
5.22
8.71
14.56
22.25
30.72
38.72
45.18
49.50
51.55
51.56
50.00
47.39
44.36
41.53
39.42
38.32
38.21
38.73
39.28
39.20
38.02
35.65
32.43
29.00
26.06
24.04
22.93
22.29
21.45
19.71
16.54
11.69
5.26
-2.41
-10.78
-19.19
-27.07
-34.02
-39.89
-44.82
-49.01
-52.71
-56.02
-59.00
-61.64
-63.86
-65.51
-66.32
-66.04
-64.53
-61.94
-58.67
-55.18
-51.79
-48.48
-44.99
-41.05
-36.64
-32.15
-28.25
-25.66
-24.79
-25.60
-27.60
-30.07
-32.32
-33.89
-34.63
-34.64
-34.09
-33.12
-31.74
-29.85
-27.39
-24.35
-20.87
-17.19
-13.59
-10.26
-7.24
-4.54
-2.12
-0.09
1.40
2.20
2.23
1.64
0.77
-0.01
-0.35
-0.11
0.57
1.39
1.98
2.06
1.48
0.32
-1.14
-2.43
-3.02
-2.45
-0.57
2.33
5.62
8.48
10.21
10.54
9.65
8.07
6.37
4.96
3.97
3.39
3.14
3.28
3.89
5.06
6.72
8.66
10.56
12.06
12.85
12.79
11.86
10.14
7.81
5.07
2.16
-0.76
-3.59
-6.42
-9.47
-12.99
-16.96
-20.67
-22.47
-20.06
-11.38
4.24
25.37
48.49
69.17
83.48
89.33
86.76
77.47
63.71
47.44
29.95
12.07
-5.36
-21.23
-34.28
-43.31
-47.58
-46.93
-41.77
-33.05
-22.15
-10.64
-0.20
7.67
11.81
11.67
7.63
1.60
-2.68
-0.21
13.60
40.46
77.45
116.98
149.11
165.45
162.57
143.25
114.69
84.60
57.53
33.52
9.52
-17.38
-47.21
-76.58
-100.33
-114.36
-117.68
-112.73
-103.89
-95.50
-90.29
-88.73
-89.77
-91.71
-92.76
-91.10
-84.87
-72.57
-53.86
-30.20
-4.93
17.41
32.53
37.79
32.98
20.31
3.45
-13.79
-28.46
-39.04
-45.39
-48.28
-48.77
-47.76
-45.70
-42.57
-38.17
-32.40
-25.56
-18.39
-11.88
-6.88
-3.74
-1.97
-0.40
2.22
6.32
11.09
14.42
13.81
7.45
-4.68
-20.54
-36.63
-49.24
-55.62
-54.84
-47.91
-37.23
-25.57
-15.08
-6.69
-0.19
5.19
10.04
14.42
18.08
21.15
24.57
29.79
37.88
48.54
59.84
68.90
73.18
71.65
65.19
55.92
46.08
37.12
29.49
22.91
16.90
11.11
5.35
-0.56
-6.77
-13.32
-19.93
-25.97
-30.75
-33.90
-35.52
-36.17
-36.38
-36.24
-35.38
-33.09
-29.01
-23.35
-17.06
-11.44
-7.72
-6.81
-9.23
-15.07
-23.91
-34.69
-45.56
-54.16
-58.09
-55.85
-47.46
-34.66
-20.43
-8.02
0.01
2.33
-1.15
-9.68
-22.05
-36.79
-52.10
-65.91
-76.17
-81.47
-81.64
-77.89
-72.27
-66.59
-61.51
-56.28
-49.38
-39.62
-26.93
-12.42
2.41
16.56
30.06
43.80
58.85
75.77
94.40
114.04
133.96
153.51
171.93
187.89
199.51
204.70
202.13
191.90
175.75
156.48
136.82
118.62
102.36
87.51
73.22
58.94
44.76
31.18
18.77
7.82
-1.73
-10.16
-17.69
-24.33
-29.86
-33.95
-36.44
-37.42
-37.28
-36.57
-35.74
-35.07
-34.65
-34.44
-34.35
-34.20
-33.74
-32.72
-30.94
-28.44
-25.58
-22.95
-21.08
-20.29
-20.54
-21.52
-22.84
-24.27
-25.87
-27.91
-30.74
-34.64
-39.63
-45.40
-51.16
-55.72
-57.73
-56.27
-51.25
-43.70
-35.40
-28.14
-22.86
-19.30
-16.20
-12.00
-5.73
2.63
12.30
22.16
31.26
38.96
44.78
48.18
48.60
45.63
39.37
30.47
19.98
9.04
-1.36
-10.35
-17.03
-20.32
-19.03
-12.25
0.14
17.23
37.11
57.33
75.53
89.97
99.78
104.89
105.75
102.98
97.12
88.52
77.49
64.40
50.06
35.79
23.32
14.41
10.28
11.11
15.83
22.40
28.57
32.74
34.65
35.46
37.20
41.84
50.35
62.35
76.44
90.91
104.61
117.42
130.15
144.07
160.25
178.98
199.42
219.63
236.71
247.37
248.74
239.07
218.51
188.99
153.69
115.91
78.10
41.17
4.51
-33.33
-73.52
-115.84
-158.11
-196.48
-226.52
-244.78
-250.03
-243.66
-229.14
-210.74
-192.10
-175.45
-161.59
-150.36
-141.45
-134.76
-130.43
-128.64
-129.41
-132.51
-137.62
-144.35
-152.30
-161.08
-170.19
-179.05
-187.13
-194.32
-201.11
-208.66
-218.30
-230.61
-244.48
-256.57
-261.70
-254.17
-229.68
-187.17
-129.80
-64.50
-0.20
54.70
94.66
118.12
127.16
125.95
118.83
109.10
98.59
88.22
78.73
70.95
65.56
62.47
60.60
58.13
53.40
45.70
35.60
24.71
15.01
8.11
4.74
4.59
6.45
8.64
9.52
8.07
4.20
-1.19
-6.57
-10.41
-11.75
-10.51
-7.27
-2.90
1.95
6.91
11.76
16.03
18.93
19.52
17.16
11.84
4.40
-3.75
-11.01
-16.11
-18.47
-18.16
-15.70
-11.78
-6.99
-1.78
3.52
8.62
13.25
17.16
20.13
21.98
22.55
21.65
19.18
15.19
10.04
4.33
-1.18
-5.79
-9.09
-10.99
-11.76
-11.80
-11.58
-11.43
-11.43
-11.38
-10.82
-9.23
-6.22
-1.79
3.66
9.43
14.76
19.16
22.48
24.87
26.57
27.77
28.47
28.62
28.22
27.40
26.44
25.55
24.80
24.07
23.14
21.90
20.53
19.50
19.37
20.48
22.69
25.39
27.72
28.93
28.68
27.02
24.27
20.71
16.49
11.65
6.37
1.04
-3.72
-7.29
-9.25
-9.58
-8.63
-6.92
-4.98
-3.18
-1.76
-0.84
-0.48
-0.72
-1.47
-2.60
-3.92
-5.27
-6.55
-7.61
-8.27
-8.28
-7.39
-5.46
-2.63
0.70
3.97
6.61
8.26
8.74
8.11
6.56
4.33
1.73
-0.88
-3.06
-4.45
-4.84
-4.31
-3.23
-2.16
-1.71
-2.33
-4.19
-7.12
-10.65
-14.05
-16.51
-17.35
-16.27
-13.48
-9.68
-5.77
-2.57
-0.56
0.29
0.28
-0.21
-1.01
-2.16
-3.79
-5.97
-8.55
-11.16
-13.37
-14.88
-15.66
-15.90
-15.90
-15.91
-16.04
-16.22
-16.34
-16.27
-15.94
-15.25
-14.08
-12.21
-9.47
-5.79
-1.33
3.56
8.39
12.69
16.09
18.38
19.56
19.72
19.05
17.76
15.96
13.71
11.04
8.05
5.10
2.72
1.42
1.42
2.35
3.38
3.50
2.04
-0.92
-4.58
-7.65
-8.94
-7.81
-4.30
1.02
7.37
14.09
20.69
26.82
32.06
35.90
37.83
37.52
35.02
30.83
25.74
20.66
16.32
13.09
11.04
9.99
9.71
10.06
10.97
12.35
14.04
15.71
17.00
17.66
17.64
17.11
16.36
15.64
15.11
14.75
14.44
13.93
12.89
10.87
7.38
2.09
-4.99
-13.36
-22.08
-29.95
-35.81
-38.82
-38.75
-35.95
-31.32
-26.08
-21.46
-18.43
-17.40
-18.11
-19.72
-21.06
-20.99
-18.75
-14.16
-7.62
0.11
8.19
15.98
23.14
29.58
35.27
40.11
43.96
46.74
48.62
50.07
51.71
54.07
57.27
60.96
64.49
67.11
68.32
67.89
65.87
62.40
57.68
52.05
46.14
40.96
37.64
37.03
39.30
43.84
49.61
55.54
61.03
65.86
69.92
72.81
73.74
71.87
66.91
59.53
51.34
44.23
39.54
37.42
36.77
35.81
32.86
27.02
18.37
7.71
-3.85
-15.24
-25.52
-33.85
-39.41
-41.47
-39.70
-34.36
-26.41
-17.26
-8.43
-1.09
4.15
7.26
8.59
8.65
8.00
7.10
6.35
6.03
6.25
7.08
8.53
10.67
13.57
17.23
21.29
24.65
25.58
21.78
11.26
-6.93
-32.63
-65.05
-103.52
-147.77
-196.97
-248.27
-295.79
-331.35
-347.72
-342.55
-320.70
-292.83
-270.52
-260.52
-262.29
-269.50
-274.89
-274.69
-269.49
-261.30
-249.62
-229.96
-196.26
-145.47
-80.84
-10.97
54.84
111.70
161.06
207.40
252.99
294.20
322.48
329.46
312.67
278.00
237.47
203.54
183.46
176.97
178.03
179.05
174.66
163.21
145.81
124.75
101.87
78.66
56.78
38.48
26.01
20.59
21.69
27.12
34.14
40.59
45.47
48.65
50.06
49.44
46.59
41.96
36.83
32.77
30.53
29.37
27.26
22.12
13.22
1.93
-8.92
-16.40
-18.92
-16.84
-11.80
-5.68
0.30
5.83
11.08
16.20
20.90
24.45
26.00
24.93
21.10
14.91
7.23
-0.87
-8.53
-15.40
-21.92
-29.04
-37.64
-47.88
-58.82
-68.70
-75.70
-78.82
-78.36
-75.76
-72.84
-71.04
-70.85
-71.86
-73.30
-74.52
-75.32
-75.79
-76.03
-75.79
-74.37
-70.89
-64.65
-55.60
-44.53
-32.88
-22.34
-14.16
-8.79
-5.82
-4.41
-3.82
-3.82
-4.70
-6.97
-10.89
-16.32
-22.72
-29.47
-35.92
-41.30
-44.30
-43.05
-35.59
-20.82
0.60
26.00
51.44
73.04
88.29
96.57
98.74
96.21
90.00
80.55
68.07
53.16
37.07
21.52
7.99
-2.78
-10.98
-17.39
-22.78
-27.48
-31.19
-33.22
-32.88
-29.93
-24.72
-18.12
-11.13
-4.59
1.05
5.66
9.31
12.02
13.67
13.99
12.70
9.62
4.88
-1.02
-7.28
-12.95
-17.25
-19.81
-20.69
-20.28
-19.02
-17.17
-14.71
-11.53
-7.63
-3.31
0.85
4.20
6.27
6.83
5.87
3.37
-0.71
-6.39
-13.47
-21.35
-29.00
-35.19
-38.82
-39.31
-36.74
-31.86
-25.82
-19.71
-14.18
-9.15
-3.89
2.51
10.57
19.92
29.28
36.93
41.61
43.14
42.65
41.97
42.54
44.54
46.63
46.73
43.18
35.67
25.37
14.02
3.01
-7.37
-17.57
-28.11
-39.07
-50.31
-62.38
-76.79
-95.30
-117.95
-141.52
-159.43
-164.17
-151.10
-121.41
-82.37
-44.28
-15.93
-0.91
2.99
1.57
0.54
2.82
8.09
14.20
19.38
23.39
27.39
32.66
39.48
46.70
52.31
54.49
52.46
46.81
39.13
31.37
25.12
21.17
19.44
19.26
19.84
20.70
21.82
23.60
26.57
30.95
36.42
42.13
46.89
49.69
50.04
48.16
44.87
41.21
38.04
35.81
34.52
33.80
33.21
32.37
31.07
29.30
27.22
25.14
23.46
22.61
22.88
24.38
27.01
30.55
34.76
39.34
43.91
47.99
51.02
52.51
52.26
50.46
47.72
44.79
42.24
40.32
38.81
37.30
35.46
33.22
30.80
28.57
26.79
25.45
24.31
22.95
20.88
17.55
12.47
5.32
-3.90
-14.73
-26.31
-37.56
-47.45
-55.22
-60.39
-62.70
-61.96
-58.03
-50.81
-40.34
-26.77
-10.42
8.14
27.98
47.65
65.29
78.97
87.35
90.10
88.15
83.31
77.59
72.43
68.16
63.92
58.21
49.67
37.83
23.45
8.28
-5.56
-16.47
-24.06
-29.28
-33.91
-39.41
-46.04
-52.51
-56.57
-56.27
-51.11
-42.42
-32.72
-24.34
-17.99
-12.56
-5.79
3.96
16.02
26.85
30.74
21.49
-5.65
-52.35
-116.05
-189.77
-262.96
-323.42
-359.91
-364.99
-336.98
-280.69
-206.43
-127.42
-56.59
-3.52
27.53
37.92
33.36
21.76
10.75
5.86
9.61
21.69
39.83
60.80
81.40
98.72
110.62
116.08
115.50
110.62
104.01
98.05
93.95
91.08
87.29
79.87
67.01
48.91
27.97
8.02
-7.17
-15.29
-16.13
-11.28
-3.17
5.92
14.52
21.94
28.06
33.02
37.13
41.09
46.03
53.44
64.63
80.09
98.90
118.52
135.26
145.21
145.33
134.43
113.35
84.63
51.66
17.87
-13.88
-41.62
-64.22
-81.32
-93.07
-99.93
-102.47
-101.24
-96.79
-89.83
-81.28
-72.17
-63.36
-55.27
-47.80
-40.51
-33.08
-25.57
-18.48
-12.41
-7.67
-4.05
-0.91
2.38
6.12
10.07
13.54
15.75
16.16
14.62
11.41
7.08
2.27
-2.31
-5.90
-7.84
-7.61
-5.04
-0.42
5.52
11.76
17.31
21.51
24.21
25.73
26.59
27.22
27.63
27.41
25.96
22.77
17.74
11.12
3.45
-4.62
-12.47
-19.54
-25.25
-29.02
-30.34
-28.94
-24.85
-18.50
-10.53
-1.73
7.17
15.49
22.76
28.67
33.03
35.79
36.91
36.47
34.61
31.71
28.24
24.79
21.81
19.56
18.04
17.04
16.27
15.45
14.42
13.18
11.87
10.73
10.01
9.90
10.46
11.64
13.29
15.21
17.22
19.16
20.81
22.01
22.65
22.75
22.49
22.19
22.18
22.72
23.88
25.47
27.03
27.84
27.16
24.35
19.15
11.84
3.14
-5.89
-14.23
-21.16
-26.36
-29.94
-32.20
-33.47
-34.02
-34.00
-33.53
-32.68
-31.54
-30.18
-28.65
-27.00
-25.39
-24.07
-23.41
-23.79
-25.49
-28.50
-32.54
-37.03
-41.22
-44.36
-45.89
-45.51
-43.26
-39.38
-34.25
-28.24
-21.65
-14.75
-7.79
-1.04
5.15
10.46
14.55
17.10
17.86
16.68
13.51
8.50
1.94
-5.75
-14.04
-22.42
-30.36
-37.40
-43.18
-47.52
-50.38
-51.79
-51.70
-49.83
-45.79
-39.18
-29.89
-18.19
-4.75
9.56
23.84
37.17
48.67
57.28
61.95
61.86
56.70
46.92
33.74
18.77
3.67
-10.15
-21.72
-30.35
-35.67
-37.51
-36.12
-32.07
-26.30
-19.82
-13.39
-7.35
-1.57
4.31
10.57
17.14
23.55
29.09
33.14
35.40
36.04
35.57
34.64
33.80
33.38
33.48
34.06
34.90
35.69
35.85
34.78
31.93
27.14
20.80
13.77
7.05
1.50
-2.46
-4.89
-6.16
-6.75
-7.12
-7.65
-8.64
-10.34
-12.85
-16.12
-19.90
-23.79
-27.30
-29.97
-31.38
-31.30
-29.67
-26.74
-23.02
-19.27
-16.29
-14.72
-14.88
-16.71
-19.83
-23.65
-27.55
-30.99
-33.59
-35.14
-35.68
-35.39
-34.61
-33.69
-32.87
-32.15
-31.30
-29.88
-27.42
-23.59
-18.35
-11.93
-4.93
1.89
7.72
11.89
14.16
14.75
14.31
13.65
13.43
13.93
15.01
16.37
17.78
19.26
21.04
23.39
26.39
29.86
33.46
36.85
39.76
41.95
43.19
43.18
41.73
38.99
35.53
32.31
30.25
29.86
30.87
32.26
32.53
30.20
24.32
14.88
2.89
-9.60
-19.93
-25.53
-24.74
-17.50
-5.57
7.91
19.45
26.30
27.19
22.39
13.25
1.42
-11.70
-25.09
-37.96
-49.49
-58.78
-64.96
-67.61
-66.90
-63.63
-59.00
-54.34
-50.72
-48.77
-48.64
-50.03
-52.29
-54.59
-56.01
-55.76
-53.36
-48.73
-42.22
-34.44
-26.05
-17.59
-9.42
-1.86
4.69
9.68
12.60
13.24
11.84
9.20
6.34
4.24
3.50
4.24
6.19
8.82
11.56
13.96
15.82
17.22
18.56
20.44
23.40
27.74
33.40
39.95
46.78
53.27
58.87
63.12
65.60
65.97
64.09
60.14
54.73
48.84
43.52
39.66
37.75
37.69
38.98
40.78
42.25
42.75
42.08
40.49
38.47
36.51
34.75
33.00
30.90
28.33
25.62
23.60
23.20
24.93
28.55
33.00
36.71
38.20
36.48
31.37
23.45
13.87
4.04
-4.84
-12.10
-17.94
-23.28
-29.45
-37.42
-47.10
-57.02
-64.77
-67.89
-65.18
-57.56
-48.13
-41.41
-41.79
-52.16
-73.10
-102.68
-136.87
-170.43
-198.01
-215.31
-220.22
-213.30
-197.51
-176.77
-154.25
-131.14
-106.61
-79.05
-47.83
-14.38
18.21
46.47
68.40
84.19
95.76
105.45
114.73
123.92
132.32
139.42
145.02
149.65
153.99
158.41
162.71
166.12
167.88
167.74
166.65
166.85
170.97
180.59
194.76
209.43
218.45
215.85
198.09
165.32
120.91
69.83
16.85
-34.64
-82.52
-125.41
-161.80
-189.84
-207.48
-212.91
-205.29
-185.25
-155.48
-120.25
-84.96
-54.38
-31.45
-16.64
-8.24
-3.78
-1.37
-0.36
-1.16
-4.42
-10.24
-17.80
-25.75
-32.82
-38.44
-42.78
-46.34
-49.42
-51.82
-52.92
-52.20
-49.75
-46.32
-43.10
-41.13
-40.93
-42.41
-44.97
-47.85
-50.25
-51.44
-50.82
-48.13
-43.63
-38.05
-32.39
-27.48
-23.68
-20.85
-18.71
-17.20
-16.67
-17.59
-20.10
-23.72
-27.35
-29.78
-30.23
-28.78
-26.26
-23.83
-22.32
-21.86
-21.89
-21.54
-20.16
-17.60
-14.19
-10.41
-6.59
-2.79
1.12
5.13
9.00
12.27
14.50
15.50
15.44
14.72
13.81
13.06
12.75
13.10
14.32
16.59
19.88
23.89
28.03
31.51
33.61
33.80
31.80
27.57
21.32
13.52
4.88
-3.73
-11.43
-17.60
-22.02
-24.91
-26.77
-28.13
-29.29
-30.16
-30.35
-29.30
-26.56
-21.93
-15.61
-8.10
-0.06
7.84
15.03
21.03
25.43
27.92
28.31
26.69
23.46
19.29
14.97
11.12
8.11
5.89
4.17
2.55
0.64
-1.78
-4.82
-8.33
-11.97
-15.18
-17.26
-17.61
-15.95
-12.39
-7.48
-1.94
3.53
8.45
12.63
16.03
18.69
20.63
21.90
22.64
23.11
23.56
24.15
24.80
25.22
25.04
23.93
21.66
18.23
13.82
8.81
3.79
-0.44
-3.02
-3.24
-0.76
4.22
11.03
18.68
26.23
32.97
38.50
42.65
45.38
46.68
46.57
45.18
42.84
40.03
37.31
35.17
33.85
33.35
33.54
34.18
35.09
36.11
37.03
37.62
37.60
36.77
35.02
32.38
28.99
24.96
20.34
15.04
9.04
2.39
-4.70
-11.88
-18.87
-25.54
-31.93
-38.04
-43.71
-48.57
-52.17
-54.21
-54.80
-54.49
-54.04
-54.08
-54.83
-55.99
-56.89
-56.83
-55.27
-51.93
-46.75
-39.81
-31.30
-21.53
-11.01
-0.38
9.57
18.06
24.43
28.33
29.78
29.18
27.22
24.71
22.34
20.56
19.48
18.96
18.70
18.39
17.78
16.74
15.33
13.91
13.03
13.28
14.89
17.42
19.68
20.16
17.57
11.58
2.97
-6.60
-15.25
-21.62
-25.23
-26.37
-25.80
-24.25
-22.22
-20.03
-17.87
-15.98
-14.57
-13.81
-13.63
-13.79
-13.94
-13.77
-13.14
-12.13
-10.88
-9.53
-8.05
-6.27
-3.99
-1.10
2.35
6.08
9.75
13.00
15.61
17.46
18.52
18.84
18.50
17.63
16.40
14.98
13.51
12.08
10.64
9.07
7.23
4.93
2.08
-1.29
-4.97
-8.47
-11.14
-12.30
-11.44
-8.47
-3.88
1.42
6.31
9.89
11.72
11.88
10.85
9.20
7.39
5.62
3.88
2.03
-0.03
-2.34
-4.83
-7.32
-9.50
-10.99
-11.46
-10.82
-9.32
-7.56
-6.30
-6.09
-7.06
-8.75
-10.30
-10.69
-9.09
-5.19
0.73
7.86
15.01
20.85
24.21
24.45
21.57
16.36
10.12
4.26
-0.09
-2.48
-3.16
-2.98
-2.97
-4.06
-6.77
-11.06
-16.28
-21.31
-24.91
-25.98
-24.02
-19.25
-12.57
-5.19
1.76
7.57
12.00
15.09
16.93
17.43
16.38
13.59
9.19
3.68
-2.12
-7.39
-11.56
-14.55
-16.75
-18.75
-21.08
-23.96
-27.25
-30.63
-33.72
-36.26
-38.19
-39.67
-41.02
-42.68
-45.03
-48.08
-50.94
-51.68
-47.54
-35.99
-16.07
10.41
38.63
61.83
73.45
69.52
50.16
19.37
-16.55
-51.29
-80.13
-100.28
-110.25
-109.01
-95.95
-71.60
-38.67
-2.24
31.34
56.44
70.11
73.09
69.10
63.22
59.88
61.55
68.50
79.47
92.40
105.26
116.42
124.69
129.62
131.60
132.39
135.12
143.42
159.72
183.51
210.33
232.71
242.83
235.54
210.53
172.24
127.62
83.34
43.79
11.09
-13.66
-28.95
-32.84
-24.27
-4.78
20.62
44.54
59.71
61.59
49.73
27.63
0.63
-26.44
-50.88
-72.57
-92.85
-112.92
-132.36
-148.68
-158.14
-157.36
-145.13
-123.64
-98.29
-76.14
-63.44
-63.28
-74.61
-92.82
-111.95
-126.91
-134.94
-135.65
-129.95
-118.65
-101.47
-76.93
-43.39
-0.12
51.54
108.15
164.48
214.30
251.15
269.16
264.36
236.40
189.77
133.44
78.35
33.29
1.23
-21.75
-43.95
-73.09
-111.56
-154.83
-193.85
-219.86
-228.79
-222.41
-206.29
-186.12
-164.89
-142.69
-118.48
-92.58
-67.60
-47.59
-35.98
-33.55
-37.91
-44.37
-48.12
-46.15
-38.40
-27.36
-16.76
-9.70
-7.42
-9.03
-12.29
-14.84
-15.27
-13.57
-10.82
-8.48
-7.54
-8.18
-9.75
-11.28
-12.05
-11.96
-11.59
-11.90
-13.84
-17.85
-23.74
-30.60
-37.04
-41.58
-43.00
-40.69
-34.77
-26.05
-15.69
-4.90
5.31
14.30
21.67
27.19
30.71
32.20
31.83
30.04
27.48
24.82
22.54
20.83
19.55
18.30
16.65
14.25
10.95
6.84
2.30
-2.01
-5.27
-6.69
-5.78
-2.50
2.70
9.02
15.58
21.60
26.49
29.77
31.03
29.91
26.34
20.66
13.72
6.61
0.38
-4.44
-7.95
-10.79
-13.86
-17.84
-22.83
-28.28
-32.94
-35.20
-33.55
-27.11
-16.06
-1.93
12.70
24.80
31.79
32.43
27.24
18.31
8.58
0.86
-3.08
-2.87
0.64
5.87
11.20
15.31
17.37
16.90
13.72
7.93
0.03
-9.03
-17.95
-25.24
-29.66
-30.49
-27.73
-22.14
-14.96
-7.51
-0.77
4.88
9.67
14.16
18.80
23.60
28.02
31.27
32.70
32.15
30.05
27.27
24.77
23.25
22.99
23.80
25.17
26.31
26.44
24.96
21.71
17.09
12.04
7.77
5.39
5.54
8.17
12.59
17.73
22.48
25.97
27.68
27.40
25.10
20.81
14.65
6.88
-2.03
-11.44
-20.65
-29.00
-36.14
-42.04
-47.07
-51.84
-56.91
-62.50
-68.20
-72.84
-74.86
-72.80
-66.01
-55.03
-41.57
-27.87
-15.95
-6.91
-0.74
3.36
6.46
9.36
12.43
15.67
18.82
21.53
23.36
23.86
22.85
20.83
19.12
19.66
24.27
33.69
47.06
62.04
75.54
84.91
88.88
87.79
83.32
77.71
72.99
70.45
70.54
72.92
76.71
80.71
83.50
83.79
80.59
73.50
62.74
49.20
34.11
18.82
4.38
-8.66
-20.31
-30.98
-41.27
-51.51
-61.51
-70.37
-76.74
-79.27
-77.29
-71.18
-62.33
-52.63
-43.64
-36.14
-29.95
-24.38
-18.83
-13.26
-8.20
-4.44
-2.53
-2.42
-3.43
-4.57
-4.89
-3.82
-1.30
2.26
6.14
9.61
12.07
13.25
13.25
12.49
11.62
11.27
11.74
12.84
13.79
13.48
10.79
5.16
-3.08
-12.66
-21.59
-27.79
-29.62
-26.22
-17.63
-4.61
11.49
28.79
45.02
57.91
65.73
68.03
65.94
61.85
58.50
57.94
60.89
66.89
74.97
84.33
94.56
105.20
115.14
122.45
124.87
120.72
109.89
94.23
77.08
62.11
51.82
46.45
43.75
39.85
30.80
14.23
-9.67
-38.12
-66.76
-91.28
-108.81
-118.53
-121.42
-119.73
-116.19
-113.71
-115.14
-123.10
-139.15
-162.90
-191.17
-218.26
-237.42
-243.18
-233.43
-210.26
-178.85
-145.10
-113.38
-85.54
-61.46
-41.10
-26.44
-21.39
-29.36
-50.13
-77.63
-101.40
-110.32
-97.02
-60.86
-7.43
54.70
118.11
178.49
232.07
271.64
286.94
269.77
220.50
150.80
80.08
28.06
2.44
0.66
12.11
23.51
24.77
12.90
-8.33
-31.23
-48.68
-57.57
-58.82
-55.86
-51.58
-46.46
-39.07
-28.28
-15.20
-3.39
2.77
0.93
-8.26
-21.48
-34.40
-43.61
-48.04
-48.74
-47.96
-47.89
-49.56
-53.00
-57.55
-62.16
-65.69
-67.01
-65.12
-59.26
-49.14
-34.94
-17.41
2.18
22.48
42.19
60.23
75.62
87.33
94.37
96.05
92.34
84.12
73.15
61.59
51.33
43.39
37.77
33.67
30.03
26.01
21.31
16.16
11.11
6.88
4.07
3.09
4.03
6.62
10.37
14.73
19.41
24.45
30.20
37.00
44.80
52.98
60.40
65.75
68.00
66.76
62.39
55.80
48.03
39.86
31.55
22.87
13.29
2.30
-10.23
-23.96
-37.97
-51.02
-61.76
-69.14
-72.59
-72.21
-68.64
-62.84
-55.91
-48.80
-42.31
-37.07
-33.55
-31.95
-32.16
-33.73
-35.90
-37.88
-39.03
-39.06
-38.14
-36.79
-35.75
-35.77
-37.39
-40.71
-45.10
-49.20
-51.06
-48.56
-40.12
-25.29
-5.08
18.14
41.26
61.20
75.71
83.70
85.35
81.70
74.38
65.23
56.11
48.69
44.15
42.87
44.26
46.91
49.10
49.30
46.68
41.14
33.10
23.19
12.09
0.62
-10.12
-18.83
-24.28
-25.70
-23.23
-17.84
-11.02
-4.25
1.38
5.35
7.46
7.67
5.96
2.40
-2.68
-8.64
-14.57
-19.64
-23.26
-25.30
-26.11
-26.36
-26.82
-28.17
-30.78
-34.47
-38.50
-41.66
-42.59
-40.30
-34.57
-26.16
-16.53
-7.26
0.45
6.15
10.09
12.75
14.48
15.22
14.62
12.32
8.31
2.99
-2.95
-8.85
-14.31
-19.28
-23.98
-28.56
-32.93
-36.61
-38.81
-38.68
-35.55
-29.26
-20.28
-9.62
1.40
11.56
19.99
26.35
30.81
33.72
35.45
36.14
35.73
34.01
30.76
25.95
19.82
13.07
6.75
2.07
-0.12
0.20
1.94
3.19
1.93
-3.07
-11.54
-21.71
-30.88
-36.49
-37.08
-32.64
-24.45
-14.41
-4.30
4.62
11.70
16.67
19.38
19.70
17.63
13.54
8.32
3.27
-0.33
-1.61
-0.50
2.34
5.72
8.44
9.62
8.90
6.53
3.17
-0.21
-2.60
-3.18
-1.58
1.96
6.65
11.41
15.32
17.93
19.37
20.18
20.90
21.78
22.62
22.95
22.26
20.33
17.31
13.72
10.18
7.31
5.51
4.90
5.30
6.27
7.16
7.35
6.43
4.47
2.05
0.11
-0.50
0.62
3.23
6.55
9.67
12.01
13.45
14.30
15.02
15.94
17.14
18.39
19.30
19.47
18.62
16.79
14.36
11.96
10.27
9.69
10.12
11.08
11.92
12.13
11.61
10.58
9.41
8.33
7.33
6.26
4.95
3.39
1.71
0.09
-1.45
-3.11
-5.23
-8.12
-11.87
-16.22
-20.61
-24.40
-27.11
-28.61
-29.07
-28.89
-28.47
-28.13
-28.06
-28.40
-29.22
-30.37
-31.50
-31.90
-30.74
-27.30
-21.25
-12.87
-3.08
6.78
15.31
21.26
23.87
22.99
19.15
13.64
8.36
5.46
6.68
12.63
22.31
33.16
41.79
45.04
41.07
29.93
13.38
-5.84
-24.80
-41.06
-52.86
-59.13
-59.53
-54.44
-45.08
-33.39
-21.54
-11.36
-3.87
0.88
3.53
4.88
5.43
5.23
4.06
1.80
-1.35
-4.84
-7.94
-10.00
-10.63
-9.68
-7.21
-3.43
1.37
6.87
12.77
18.92
25.51
32.88
41.38
51.00
61.15
70.77
78.58
83.56
85.25
83.78
79.68
73.57
66.02
57.45
48.20
38.55
28.63
18.45
7.84
-3.36
-15.14
-27.20
-38.92
-49.54
-58.38
-64.96
-69.07
-70.79
-70.35
-68.11
-64.42
-59.58
-53.84
-47.39
-40.60
-34.04
-28.47
-24.65
-22.99
-23.36
-25.00
-26.89
-28.10
-28.15
-27.08
-25.27
-23.15
-21.09
-19.32
-18.09
-17.60
-17.91
-18.75
-19.37
-18.81
-16.25
-11.46
-4.96
2.21
8.86
14.09
17.53
19.23
19.41
18.29
16.04
12.89
9.28
5.80
3.05
1.34
0.60
0.43
0.28
-0.28
-1.45
-3.20
-5.31
-7.37
-8.85
-9.18
-7.76
-4.28
1.22
8.26
15.98
23.47
29.97
34.88
37.84
38.61
37.10
33.46
28.18
22.04
15.93
10.61
6.53
3.73
1.99
0.84
-0.18
-1.50
-3.44
-6.14
-9.48
-13.04
-16.10
-17.79
-17.34
-14.30
-8.66
-0.95
8.05
17.50
26.80
35.57
43.49
49.97
54.17
55.20
52.61
46.89
39.43
32.16
26.74
23.96
23.45
24.07
24.57
24.18
22.87
21.15
19.70
19.13
19.83
22.06
25.91
31.32
37.97
45.27
52.45
58.79
63.76
67.09
68.78
68.92
67.70
65.29
61.94
57.94
53.58
49.07
44.50
39.85
34.97
29.62
23.47
16.16
7.44
-2.57
-13.21
-23.18
-30.87
-34.87
-34.51
-30.17
-23.23
-15.57
-8.99
-4.72
-3.25
-4.49
-7.95
-13.01
-18.78
-24.20
-28.17
-29.87
-29.06
-25.95
-20.75
-13.19
-2.56
11.67
28.79
46.28
60.17
66.52
63.12
50.53
31.90
11.70
-5.79
-17.60
-22.40
-20.30
-12.50
-0.91
11.97
23.32
30.51
31.46
25.02
11.18
-8.56
-31.41
-53.54
-70.98
-80.80
-81.89
-74.64
-59.54
-35.99
-2.36
42.05
94.58
147.96
191.50
214.82
211.75
182.43
132.22
68.56
-2.03
-74.78
-145.20
-206.98
-251.60
-270.58
-259.25
-219.84
-161.65
-97.91
-41.24
0.24
24.27
33.35
31.92
23.99
11.78
-4.02
-23.24
-45.22
-68.38
-90.43
-109.02
-122.78
-131.75
-137.30
-141.27
-144.71
-146.89
-145.14
-135.77
-115.72
-84.28
-43.81
0.65
43.00
77.73
101.16
111.78
109.92
97.03
75.21
46.78
14.17
-20.22
-54.19
-85.79
-113.38
-135.59
-151.38
-160.04
-161.23
-154.91
-141.08
-119.73
-90.99
-55.56
-15.36
26.16
64.53
95.16
114.71
121.94
117.76
104.60
85.49
63.25
40.10
17.73
-2.66
-20.24
-34.74
-46.39
-55.82
-63.70
-70.36
-75.55
-78.32
-77.33
-71.16
-58.74
-39.85
-15.36
12.75
41.67
68.40
90.40
106.10
115.19
118.43
117.32
113.81
109.94
107.50
107.76
111.11
116.92
123.67
129.52
133.05
134.03
133.85
135.29
141.71
155.67
177.57
204.81
231.92
252.01
258.98
249.67
224.77
188.42
146.20
102.99
61.45
21.84
-17.30
-57.95
-101.66
-148.68
-197.36
-243.90
-282.76
-308.07
-315.57
-304.42
-277.73
-241.48
-202.28
-165.29
-133.25
-106.97
-86.46
-71.74
-62.78
-58.74
-57.56
-56.50
-53.35
-47.77
-41.59
-37.99
-39.94
-48.50
-62.12
-77.07
-88.76
-93.31
-89.02
-77.06
-61.36
-47.59
-41.29
-45.87
-60.86
-81.60
-100.84
-111.91
-112.07
-104.07
-94.92
-92.24
-99.95
-115.80
-132.11
-139.37
-130.45
-103.38
-61.24
-9.90
44.90
99.21
150.70
197.30
235.84
262.03
271.70
262.84
236.95
199.28
157.43
118.98
89.16
69.54
58.33
52.07
47.61
43.58
40.53
39.83
42.19
46.80
51.60
54.33
53.72
50.05
44.62
38.77
33.01
26.84
19.22
9.41
-2.43
-15.21
-27.28
-37.08
-43.64
-46.75
-46.78
-44.32
-39.83
-33.56
-25.58
-16.04
-5.41
5.40
15.20
22.98
28.37
31.96
35.18
39.64
46.42
55.47
65.45
74.02
78.22
74.91
61.37
36.43
1.81
-36.77
-70.07
-87.99
-83.63
-57.13
-16.73
23.98
51.68
59.02
47.55
26.17
6.34
-3.31
0.06
13.98
33.50
54.30
74.00
91.60
106.00
115.08
116.11
107.09
88.27
62.53
34.59
9.41
-9.37
-20.48
-25.25
-26.94
-29.60
-36.66
-49.57
-67.23
-86.45
-103.51
-116.18
-124.87
-132.28
-141.56
-154.25
-169.05
-182.28
-190.10
-190.55
-184.86
-177.03
-172.02
-173.65
-183.17
-199.57
-220.20
-241.92
-261.39
-274.76
-277.20
-263.48
-229.84
-176.10
-106.93
-30.77
43.34
109.52
167.25
220.19
272.46
324.42
370.94
403.49
414.59
402.08
370.47
328.52
284.95
245.00
209.08
174.74
139.31
101.92
63.64
26.22
-8.97
-41.83
-72.71
-101.39
-126.40
-145.30
-155.64
-156.08
-147.24
-131.62
-113.00
-95.24
-81.11
-71.59
-65.77
-61.57
-56.69
-49.54
-39.76
-28.21
-16.58
-6.88
-0.81
0.90
-1.18
-5.24
-8.92
-10.34
-9.21
-7.02
-6.36
-9.41
-16.54
-25.86
-34.10
-38.28
-37.20
-31.89
-24.85
-18.66
-14.90
-13.75
-14.43
-15.88
-17.40
-18.83
-20.42
-22.49
-25.21
-28.47
-31.85
-34.74
-36.43
-36.26
-33.70
-28.49
-20.67
-10.64
0.87
12.91
24.43
34.62
43.01
49.54
54.36
57.57
59.07
58.57
55.88
51.12
44.81
37.57
29.94
22.15
14.22
6.33
-0.92
-6.34
-8.51
-6.34
0.33
10.54
22.59
34.81
46.35
57.38
68.68
80.72
92.83
102.99
108.59
107.68
100.07
87.66
73.66
61.27
52.54
47.84
46.32
46.71
48.04
49.79
51.64
52.95
52.69
49.81
43.94
35.82
27.35
20.86
18.17
19.79
24.65
30.56
35.13
36.68
34.73
29.93
23.53
16.74
10.32
4.56
-0.60
-5.20
-9.26
-12.72
-15.64
-18.28
-21.05
-24.42
-28.67
-33.67
-38.88
-43.38
-46.22
-46.75
-44.89
-41.27
-36.92
-32.92
-30.02
-28.42
-27.94
-28.25
-29.20
-30.91
-33.59
-37.34
-41.97
-46.97
-51.76
-55.87
-59.15
-61.80
-64.32
-67.31
-71.24
-76.24
-81.78
-86.77
-89.69
-89.06
-83.98
-74.41
-61.23
-45.93
-30.16
-15.24
-2.05
9.06
18.04
24.96
30.00
33.30
35.06
35.45
34.58
32.52
29.22
24.57
18.42
10.63
1.14
-9.87
-21.79
-33.55
-43.62
-50.41
-52.66
-49.89
-42.55
-31.86
-19.44
-6.82
4.80
14.65
22.17
26.93
28.53
26.84
22.12
15.17
7.19
-0.58
-7.17
-12.13
-15.57
-17.98
-19.97
-22.01
-24.30
-26.64
-28.55
-29.33
-28.33
-25.14
-19.72
-12.48
-4.04
4.82
13.47
21.37
28.11
33.29
36.52
37.53
36.34
33.35
29.34
25.18
21.66
19.23
17.92
17.40
17.19
16.74
15.63
13.63
10.81
7.63
4.97
3.90
5.48
10.30
18.29
28.64
40.02
50.87
59.78
65.68
67.97
66.44
61.32
53.32
43.58
33.57
24.80
18.44
14.99
14.08
14.68
15.42
15.05
12.78
8.46
2.56
-3.97
-9.90
-13.98
-15.18
-13.02
-7.71
-0.14
8.36
16.40
22.92
27.40
29.80
30.33
29.23
26.60
22.59
17.46
11.74
6.15
1.38
-2.12
-4.35
-5.69
-6.75
-8.09
-10.07
-12.73
-15.71
-18.42
-20.06
-19.90
-17.47
-12.80
-6.43
0.69
7.51
13.20
17.25
19.53
20.07
18.97
16.36
12.45
7.62
2.42
-2.56
-6.91
-10.46
-13.34
-15.86
-18.33
-20.99
-23.94
-27.11
-30.28
-33.06
-34.88
-35.14
-33.40
-29.57
-24.02
-17.47
-10.81
-4.80
0.06
3.53
5.57
6.14
5.21
2.85
-0.65
-4.72
-8.62
-11.65
-13.42
-13.97
-13.80
-13.66
-14.27
-16.06
-19.00
-22.51
-25.64
-27.23
-26.34
-22.53
-16.04
-7.71
1.28
9.76
16.95
22.52
26.56
29.33
31.04
31.78
31.60
30.59
28.96
27.04
25.11
23.38
21.92
20.72
19.63
18.41
16.76
14.42
11.43
8.33
6.11
5.99
8.88
14.94
23.42
32.87
41.79
49.10
54.45
58.06
60.33
61.44
61.26
59.57
56.30
51.79
46.73
41.92
37.92
34.78
32.09
29.18
25.43
20.52
14.51
7.76
0.83
-5.62
-10.86
-14.16
-14.92
-12.85
-8.16
-1.59
5.69
12.37
17.35
19.96
20.06
17.93
14.14
9.31
4.10
-0.85
-4.97
-7.93
-9.85
-11.37
-13.34
-16.25
-19.70
-22.28
-22.32
-18.80
-12.23
-4.72
0.88
2.17
-2.06
-11.76
-25.99
-43.34
-61.84
-78.48
-89.24
-89.75
-76.45
-47.79
-4.88
48.59
107.04
163.89
212.42
246.69
262.41
257.79
233.78
193.81
142.96
87.10
32.11
-16.76
-55.31
-80.92
-92.94
-92.83
-83.73
-69.73
-54.91
-42.58
-34.74
-31.89
-33.09
-36.44
-39.90
-42.12
-42.99
-43.63
-45.91
-51.81
-62.78
-79.51
-101.28
-125.38
-146.97
-160.33
-161.10
-148.89
-128.40
-107.56
-93.82
-89.95
-92.39
-93.23
-84.95
-65.08
-37.40
-9.53
11.34
21.79
22.65
17.35
9.93
4.45
5.17
16.66
42.09
80.51
125.19
164.78
187.51
186.41
162.48
123.67
80.86
43.03
14.58
-4.65
-17.29
-26.27
-33.50
-39.07
-41.38
-37.74
-26.00
-6.16
18.22
40.34
52.21
47.65
24.80
-13.32
-60.45
-109.61
-155.14
-193.38
-222.10
-239.83
-245.80
-240.53
-226.33
-206.94
-186.55
-168.22
-152.85
-138.88
-122.79
-100.24
-67.60
-23.49
30.07
87.40
140.37
180.68
202.50
204.41
189.58
164.22
135.05
107.06
82.32
60.55
40.52
21.54
4.27
-9.41
-17.28
-17.92
-11.56
-0.18
13.02
24.85
33.29
38.14
40.61
42.18
43.41
43.41
40.46
33.34
22.60
10.91
2.07
-0.85
2.92
11.31
20.21
25.22
23.31
13.94
-1.16
-18.81
-35.69
-49.25
-58.04
-61.69
-60.53
-55.36
-47.43
-38.48
-30.66
-26.19
-26.87
-33.56
-45.89
-62.27
-80.25
-97.18
-110.85
-119.97
-124.30
-124.52
-121.87
-117.53
-112.26
-106.10
-98.44
-88.36
-75.16
-58.79
-40.10
-20.63
-2.21
13.50
25.37
32.94
36.35
36.22
33.60
29.75
26.09
23.84
23.82
26.15
30.34
35.43
40.35
44.18
46.28
46.41
44.70
41.73
38.41
35.81
34.87
36.10
39.44
44.27
49.67
54.68
58.54
60.65
60.61
58.09
52.99
45.53
36.40
26.60
17.17
8.85
1.93
-3.70
-8.29
-12.01
-14.85
-16.69
-17.53
-17.51
-16.75
-15.16
-12.27
-7.35
0.19
10.45
22.80
36.01
48.65
59.49
67.63
72.59
74.15
72.32
67.53
60.76
53.54
47.53
43.89
42.63
42.46
41.24
36.80
27.75
13.98
-3.39
-22.44
-40.90
-56.61
-67.76
-73.16
-72.42
-66.06
-55.42
-42.39
-28.88
-16.45
-6.02
2.06
7.93
12.03
14.96
17.30
19.40
21.25
22.44
22.38
20.61
17.11
12.39
7.38
3.17
0.73
0.86
4.08
10.70
20.71
33.69
48.76
64.76
80.47
94.92
107.52
117.92
125.91
131.20
133.47
132.57
128.69
122.39
114.47
105.62
96.21
86.21
75.28
63.15
49.85
35.84
21.91
9.11
-1.55
-9.20
-13.34
-13.93
-11.46
-6.86
-1.34
3.90
7.85
9.90
9.86
7.79
3.90
-1.61
-8.52
-16.59
-25.44
-34.49
-43.13
-50.75
-57.09
-62.26
-66.83
-71.59
-77.22
-84.02
-91.59
-98.99
-104.99
-108.48
-108.83
-106.02
-100.61
-93.52
-85.79
-78.40
-72.22
-67.93
-65.97
-66.35
-68.55
-71.59
-74.21
-75.31
-74.37
-71.67
-68.14
-64.97
-63.07
-62.74
-63.57
-64.72
-65.26
-64.45
-61.87
-57.39
-51.11
-43.30
-34.45
-25.31
-16.73
-9.41
-3.48
1.60
6.96
13.87
23.19
35.05
48.83
63.47
77.79
90.62
100.74
106.73
107.07
100.64
87.33
68.60
47.38
27.42
12.18
3.91
3.12
8.70
18.44
29.73
40.21
48.09
52.38
52.81
49.82
44.21
36.90
28.64
19.87
10.83
1.74
-7.09
-15.25
-22.42
-28.58
-34.05
-39.47
-45.33
-51.66
-57.70
-62.08
-63.19
-59.92
-52.10
-40.66
-27.30
-13.92
-2.12
7.17
13.62
17.44
19.11
19.24
18.47
17.25
15.75
13.85
11.26
7.86
3.85
-0.21
-3.73
-6.39
-8.21
-9.38
-9.86
-9.11
-6.23
-0.41
8.56
20.11
33.03
46.01
57.97
68.15
75.85
80.19
80.17
75.13
65.44
52.75
39.58
28.47
20.84
16.53
13.99
11.13
6.11
-2.14
-13.89
-28.61
-44.84
-59.97
-70.47
-72.72
-64.41
-45.69
-19.26
10.73
40.49
67.85
92.42
114.53
133.92
149.17
158.26
159.90
154.61
144.68
133.19
122.46
113.18
104.37
94.30
81.44
65.25
46.34
26.21
6.84
-9.67
-21.35
-26.72
-25.16
-17.24
-4.74
9.71
23.22
33.37
38.63
38.36
32.51
21.38
5.62
-13.54
-34.05
-53.21
-68.37
-77.88
-82.07
-83.42
-85.77
-92.68
-105.72
-123.30
-141.10
-153.99
-158.21
-153.38
-142.65
-131.23
-124.09
-124.54
-133.61
-150.56
-173.51
-199.19
-222.13
-234.76
-229.14
-200.09
-148.18
-80.20
-6.31
64.66
128.85
187.50
243.38
295.83
338.19
359.78
351.48
311.55
248.02
176.00
111.42
64.72
37.85
25.60
20.10
15.28
9.05
2.47
-2.46
-5.48
-8.57
-14.83
-26.60
-43.84
-64.12
-83.82
-100.06
-111.98
-121.00
-129.79
-140.64
-154.03
-168.03
-179.07
-183.46
-179.07
-166.44
-148.61
-129.86
-113.79
-101.94
-92.87
-83.21
-69.06
-47.74
-18.97
14.69
48.40
76.42
93.79
98.50
91.88
78.17
62.62
49.15
38.78
29.80
20.49
8.37
-5.22
-17.14
-24.16
-24.84
-20.00
-11.78
-1.98
9.15
22.46
39.04
58.35
77.89
93.94
103.10
103.69
96.26
83.18
67.42
51.73
37.57
25.06
13.41
1.59
-10.97
-23.93
-36.04
-45.57
-50.72
-50.48
-44.86
-34.87
-22.18
-8.52
4.62
16.24
25.65
32.51
36.62
38.02
37.03
34.25
30.40
26.12
21.84
17.58
13.17
8.16
2.05
-5.65
-15.17
-26.35
-38.49
-50.33
-60.40
-67.37
-70.46
-69.60
-65.31
-58.44
-49.90
-40.46
-30.93
-22.21
-15.20
-10.63
-8.54
-8.16
-8.03
-6.54
-2.58
3.97
12.19
20.56
27.43
31.64
32.75
31.09
27.56
23.27
19.30
16.45
15.09
15.14
16.20
17.68
18.97
19.48
18.74
16.42
12.46
7.12
1.03
-4.95
-9.99
-13.57
-15.62
-16.55
-17.00
-17.54
-18.54
-20.08
-21.97
-23.83
-25.05
-24.84
-22.31
-16.71
-7.74
4.24
18.25
32.92
46.85
59.03
68.86
76.12
80.74
82.63
81.72
78.07
71.97
63.99
54.88
45.35
35.95
26.91
18.21
9.64
0.93
-8.08
-17.32
-26.33
-34.35
-40.40
-43.64
-43.65
-40.66
-35.56
-29.64
-24.28
-20.53
-18.98
-19.77
-22.79
-27.81
-34.50
-42.23
-49.98
-56.38
-60.11
-60.38
-57.39
-52.29
-46.85
-42.76
-41.04
-41.79
-44.25
-47.24
-49.54
-50.17
-48.56
-44.59
-38.50
-30.85
-22.40
-13.95
-6.21
0.33
5.32
8.57
10.03
9.82
8.32
6.13
4.02
2.58
2.11
2.46
3.15
3.58
3.27
2.04
0.09
-2.13
-4.05
-5.03
-4.49
-1.96
2.81
9.68
18.13
27.31
36.23
43.98
49.81
53.13
53.47
50.54
44.41
35.73
25.83
16.39
8.98
4.44
2.68
2.85
3.77
4.48
4.41
3.48
1.90
0.13
-1.23
-1.43
0.23
4.18
10.30
17.85
25.72
32.84
38.65
43.36
47.78
52.88
59.27
66.86
74.82
81.94
87.05
89.48
89.15
86.45
81.92
75.94
68.62
59.97
50.24
40.15
31.05
24.54
22.01
24.00
29.91
38.04
46.12
52.13
54.90
54.39
51.43
47.14
42.36
37.41
32.12
26.27
19.89
13.35
7.21
1.85
-2.71
-6.81
-11.00
-15.74
-21.23
-27.42
-33.98
-40.39
-45.96
-50.02
-52.07
-52.10
-50.68
-48.83
-47.58
-47.58
-48.85
-50.96
-53.49
-56.38
-59.96
-64.56
-69.96
-75.19
-78.76
-79.53
-77.34
-73.39
-69.77
-68.50
-70.47
-74.88
-79.54
-81.78
-79.53
-72.17
-60.67
-47.15
-34.07
-23.48
-16.52
-13.36
-13.36
-15.52
-18.78
-22.42
-26.08
-29.73
-33.49
-37.37
-41.18
-44.42
-46.58
-47.24
-46.40
-44.47
-42.19
-40.44
-39.83
-40.40
-41.46
-41.78
-40.04
-35.45
-28.18
-19.47
-11.21
-5.21
-2.44
-2.52
-3.96
-4.84
-3.76
-0.63
3.21
5.46
3.82
-3.08
-15.06
-30.25
-45.49
-56.78
-59.96
-51.64
-30.36
2.51
42.36
82.25
114.92
135.37
142.74
140.64
135.53
133.93
139.77
153.11
170.74
188.15
201.67
209.65
212.26
210.14
202.96
188.99
165.89
132.37
89.66
41.88
-5.16
-46.11
-77.94
-100.56
-115.95
-126.46
-133.15
-135.32
-131.36
-120.25
-102.89
-82.35
-62.95
-48.60
-41.41
-41.20
-45.92
-52.85
-59.60
-64.64
-67.26
-67.15
-64.16
-58.26
-49.69
-39.18
-27.93
-17.46
-9.22
-4.29
-3.13
-5.43
-10.01
-14.98
-18.06
-16.97
-9.69
5.22
28.26
58.48
92.83
126.22
152.21
164.62
159.47
136.08
96.85
45.60
-13.99
-78.97
-145.92
-209.32
-260.71
-290.01
-288.99
-255.13
-193.80
-117.39
-41.36
20.82
61.65
80.91
84.06
78.89
72.35
68.61
69.09
73.30
80.11
88.40
97.22
105.68
112.59
116.79
117.44
114.38
108.18
100.22
92.20
85.74
82.02
81.11
81.99
82.85
82.26
80.22
78.41
79.29
84.15
91.52
96.78
93.68
76.89
44.28
-2.14
-57.03
-113.42
-164.49
-204.64
-229.83
-237.66
-227.76
-202.29
-166.06
-125.82
-88.49
-59.27
-40.26
-30.45
-26.36
-23.81
-19.41
-11.41
-0.01
13.39
26.87
38.85
48.46
55.48
59.86
61.38
59.56
53.94
44.44
31.64
16.77
1.28
-13.47
-26.62
-37.91
-47.55
-56.08
-64.02
-71.60
-78.55
-84.03
-86.77
-85.56
-79.81
-69.92
-57.36
-44.14
-32.14
-22.50
-15.29
-9.66
-4.19
2.49
11.21
21.90
33.55
44.39
52.40
55.92
54.10
47.23
36.65
24.41
12.83
3.94
-0.89
-1.22
2.45
8.90
16.58
23.93
29.77
33.44
34.85
34.41
32.77
30.53
27.88
24.50
19.59
12.49
3.23
-7.07
-16.39
-22.67
-24.73
-22.89
-18.86
-14.83
-12.42
-12.05
-12.91
-13.60
-12.92
-10.36
-6.11
-0.68
5.42
11.89
18.47
24.74
30.06
33.58
34.61
32.84
28.50
22.27
15.10
7.91
1.31
-4.39
-9.17
-13.21
-16.78
-20.17
-23.60
-27.12
-30.41
-32.72
-33.05
-30.45
-24.41
-15.17
-3.62
9.03
21.60
33.17
43.02
50.41
54.51
54.59
50.36
42.36
31.96
20.98
11.12
3.34
-2.31
-6.54
-10.37
-14.64
-19.64
-24.97
-29.68
-32.58
-32.72
-29.70
-23.85
-16.08
-7.53
0.80
8.20
14.25
18.62
20.95
20.86
18.16
13.10
6.47
-0.56
-6.83
-11.56
-14.67
-16.61
-18.00
-19.17
-19.88
-19.36
-16.70
-11.27
-3.00
7.59
19.57
31.84
43.22
52.55
58.78
61.23
59.77
55.01
48.13
40.42
32.89
25.93
19.47
13.26
7.26
1.70
-3.03
-6.69
-9.40
-11.67
-14.12
-17.19
-20.91
-24.75
-27.84
-29.23
-28.23
-24.67
-18.93
-11.90
-4.73
1.46
5.91
8.40
9.22
9.03
8.56
8.41
8.91
10.06
11.51
12.73
13.05
11.95
9.21
5.04
0.14
-4.49
-7.78
-8.89
-7.41
-3.36
2.78
10.35
18.64
27.17
35.79
44.70
54.20
64.38
74.90
84.89
93.26
99.02
101.71
101.48
99.07
95.33
91.06
86.72
82.25
77.19
70.92
63.07
53.95
44.82
37.35
33.27
33.47
37.24
42.27
45.42
43.94
36.51
23.81
7.18
-11.66
-31.66
-52.80
-75.58
-100.18
-126.13
-152.42
-177.38
-199.76
-217.64
-228.89
-232.31
-228.87
-222.58
-219.52
-225.57
-240.38
-260.38
-277.78
-283.85
-273.82
-249.27
-216.29
-181.37
-150.50
-122.02
-93.44
-63.46
-32.80
-3.23
23.94
49.14
73.11
97.60
124.47
153.76
184.69
216.12
246.51
273.74
294.75
305.72
303.21
285.88
255.02
214.99
171.90
131.30
96.43
67.91
44.63
25.51
10.47
-0.26
-6.67
-9.72
-11.40
-13.89
-18.53
-25.16
-32.42
-38.56
-42.50
-44.17
-44.18
-43.31
-41.95
-40.00
-37.00
-32.36
-25.79
-17.47
-8.03
1.64
10.55
17.81
22.76
25.15
25.18
23.44
20.66
17.56
14.59
11.91
9.35
6.60
3.27
-0.82
-5.53
-10.25
-13.99
-15.61
-14.22
-9.53
-2.00
7.25
16.82
25.45
32.30
37.07
39.78
40.62
39.74
37.18
32.89
26.96
19.59
11.23
2.47
-6.03
-13.74
-20.26
-25.43
-29.28
-32.09
-34.35
-36.67
-39.52
-42.91
-46.33
-48.83
-49.45
-47.65
-43.62
-38.25
-32.76
-28.28
-25.54
-24.71
-25.39
-26.81
-27.89
-27.60
-25.26
-20.86
-15.16
-9.50
-5.33
-3.75
-5.29
-9.77
-16.41
-24.06
-31.26
-36.47
-38.33
-36.05
-29.83
-20.94
-11.42
-3.39
1.60
3.14
2.13
0.46
0.20
2.67
7.70
13.68
18.44
20.30
19.15
16.67
15.68
18.72
26.70
38.30
50.63
60.72
66.84
69.14
69.48
70.37
73.56
79.28
86.06
90.49
89.88
83.04
70.22
52.25
30.72
8.90
-7.80
-13.17
-1.71
28.19
71.75
118.23
154.98
172.10
167.39
148.17
127.65
117.89
123.45
139.35
154.50
157.97
144.63
116.35
79.01
37.84
-5.11
-49.75
-94.98
-135.60
-162.78
-167.61
-146.32
-103.55
-51.97
-8.19
13.83
7.91
-22.75
-67.93
-115.00
-153.56
-177.67
-185.49
-177.28
-153.86
-116.57
-68.66
-16.49
30.70
63.06
73.74
61.70
31.79
-7.90
-50.32
-92.45
-135.31
-180.96
-228.37
-271.17
-298.76
-300.76
-272.66
-219.37
-154.68
-96.68
-61.49
-58.00
-85.86
-136.94
-198.99
-259.44
-307.88
-337.09
-343.36
-326.06
-287.55
-232.62
-167.54
-98.63
-31.19
30.97
85.20
129.63
163.38
186.98
202.60
213.48
222.48
230.61
236.41
236.71
228.52
211.09
186.74
160.12
136.22
118.28
106.69
99.36
93.13
85.37
75.17
63.25
51.41
41.67
35.33
32.83
33.99
38.46
45.98
56.23
68.37
80.87
91.72
99.20
102.79
103.55
103.69
105.32
108.99
113.00
114.02
108.73
95.68
76.39
54.96
36.35
24.38
20.36
22.92
28.87
34.43
35.94
30.14
13.97
-15.18
-58.61
-115.10
-180.08
-245.97
-303.68
-344.81
-363.82
-359.34
-334.25
-294.70
-248.55
-203.60
-166.14
-139.96
-126.15
-123.54
-129.59
-141.31
-155.80
-170.43
-182.55
-189.62
-189.56
-181.54
-166.61
-147.59
-128.21
-111.61
-99.29
-90.72
-84.08
-77.49
-69.74
-60.37
-49.25
-35.99
-19.87
-0.28
22.72
48.06
74.05
98.88
121.21
140.27
155.73
167.35
174.99
178.72
179.00
176.54
172.04
165.81
157.79
147.84
136.28
124.21
113.41
105.83
102.92
105.15
111.68
120.61
129.57
136.13
138.33
134.83
125.07
109.57
90.15
69.77
52.01
39.97
35.28
37.58
44.72
53.64
61.55
66.66
68.36
66.89
62.82
56.91
50.10
43.65
39.06
37.67
40.32
46.84
56.11
66.41
75.97
83.60
88.77
91.37
91.15
87.75
80.03
66.49
46.25
20.18
-8.58
-35.13
-54.44
-63.02
-58.87
-42.74
-17.62
12.16
42.18
68.85
90.07
105.16
114.67
121.70
129.37
139.62
152.33
165.63
176.98
184.39
187.06
185.44
183.27
184.37
191.25
204.04
220.62
237.89
253.16
265.16
259.79
229.20
173.06
99.88
22.92
-46.56
-103.26
-147.15
-180.74
-206.72
-224.50
-232.94
-231.78
-222.86
-210.21
-198.65
-192.00
-191.64
-196.35
-201.24
-201.52
-194.71
-181.70
-166.08
-151.88
-141.32
-134.05
-127.95
-119.62
-107.12
-90.91
-73.14
-56.35
-42.16
-30.85
-21.95
-15.38
-11.27
-9.44
-10.41
-13.51
-17.00
-18.86
-17.90
-14.49
-10.47
-7.97
-8.36
-11.60
-16.05
-19.43
-19.78
-16.13
-8.71
1.19
11.55
20.20
25.19
25.43
20.73
11.93
0.81
-10.28
-18.90
-23.12
-22.03
-16.23
-7.58
1.02
6.55
6.83
1.37
-8.59
-20.57
-31.58
-39.07
-40.74
-35.90
-26.00
-14.65
-6.34
-4.59
-10.12
-20.11
-29.36
-32.77
-27.95
-16.48
-2.96
7.30
10.78
6.94
-2.25
-13.76
-25.10
-34.96
-42.97
-49.09
-53.16
-55.11
-55.05
-53.49
-51.22
-48.87
-46.63
-44.10
-40.52
-35.36
-28.90
-22.51
-18.34
-18.63
-24.64
-35.82
-49.60
-62.09
-69.35
-68.73
-59.96
-45.17
-28.13
-13.21
-4.17
-2.98
-9.37
-20.35
-30.41
-32.83
-22.02
3.86
41.26
81.61
114.30
130.75
128.08
110.58
88.34
73.40
74.99
95.92
131.36
170.54
200.72
211.67
198.49
162.06
107.37
41.34
-28.41
-93.51
-144.57
-172.20
-169.91
-137.97
-85.34
-27.55
19.01
43.69
45.70
33.32
18.85
12.33
17.28
30.48
45.02
54.50
55.90
49.91
39.37
27.33
15.64
5.10
-3.80
-10.47
-14.59
-16.71
-18.79
-23.58
-33.42
-48.62
-66.77
-83.25
-92.89
-92.17
-80.53
-60.67
-37.40
-15.74
0.82
11.25
16.74
19.65
22.03
25.03
28.79
32.91
36.69
39.10
38.75
34.54
26.80
18.41
14.58
20.72
39.42
68.07
99.13
123.10
132.89
126.98
109.65
88.27
69.47
56.52
49.20
45.52
43.81
43.64
45.10
47.68
49.57
48.13
41.41
29.32
13.90
-1.40
-13.11
-18.81
-17.62
-10.03
2.66
18.82
36.67
54.34
69.89
81.54
87.86
88.12
82.32
71.07
55.32
36.14
14.51
-8.65
-32.49
-56.44
-80.34
-104.44
-128.90
-152.91
-173.93
-187.72
-189.52
-176.04
-147.35
-107.35
-62.59
-19.96
15.72
42.77
62.12
75.56
84.24
87.96
85.95
77.98
65.27
50.40
36.35
25.26
17.65
12.51
8.16
3.39
-1.80
-6.14
-7.58
-4.06
5.83
22.34
44.22
68.50
90.57
104.75
105.44
88.54
52.59
-0.71
-66.57
-138.00
-206.87
-265.19
-306.37
-326.42
-324.64
-303.68
-268.66
-225.73
-180.63
-137.82
-100.22
-69.39
-45.82
-28.98
-17.40
-9.07
-2.09
4.61
11.14
16.99
21.77
25.76
29.93
35.51
43.37
53.69
66.17
80.35
95.94
112.80
130.48
147.93
163.57
175.59
182.76
185.05
183.93
182.31
184.00
192.93
211.90
241.35
278.44
317.13
349.55
368.35
369.29
352.64
322.82
286.30
248.99
214.39
183.30
154.97
128.68
104.54
83.19
64.71
47.77
29.60
6.98
-22.51
-59.74
-103.96
-153.03
-203.76
-252.01
-292.98
-322.03
-335.85
-333.67
-317.58
-291.76
-260.89
-228.67
-197.15
-167.25
-139.78
-116.24
-98.52
-87.92
-84.15
-85.16
-87.99
-90.21
-91.11
-92.02
-95.77
-105.58
-123.74
-150.75
-185.12
-223.87
-263.67
-301.87
-337.16
-369.45
-399.04
-425.54
-447.20
-460.89
-463.01
-450.69
-422.86
-380.75
-327.45
-266.99
-203.27
-139.30
-76.72
-16.02
42.73
98.94
150.64
194.40
226.26
243.28
245.07
234.38
216.35
196.76
180.03
168.12
160.54
155.55
151.48
147.53
143.62
139.78
135.50
129.72
121.30
109.79
95.69
80.34
65.31
51.79
40.27
30.62
22.51
15.79
10.71
7.82
7.69
10.52
15.88
22.60
29.08
33.78
35.67
34.68
31.64
27.99
25.10
23.71
23.66
24.00
23.45
21.00
16.28
9.72
2.53
-3.53
-6.51
-4.88
1.64
11.50
21.15
26.07
22.58
9.74
-9.74
-30.29
-45.68
-51.58
-47.11
-34.61
-18.07
-1.22
13.61
25.47
34.12
39.37
40.99
38.91
33.26
23.87
9.74
-11.03
-40.55
-79.77
-127.12
-178.10
-226.20
-264.88
-289.44
-298.08
-291.48
-271.52
-239.81
-197.23
-144.45
-83.36
-18.23
44.39
97.26
134.83
155.25
160.84
156.53
147.35
136.22
123.24
106.83
85.70
60.47
33.95
10.44
-6.46
-14.91
-15.36
-10.20
-3.07
1.74
-0.15
-12.40
-37.08
-73.57
-117.73
-162.47
-199.30
-220.61
-221.85
-202.37
-164.91
-113.99
-54.54
8.80
71.27
127.70
172.73
202.12
214.51
212.56
202.41
191.59
186.32
189.27
198.89
211.00
220.38
222.97
216.73
201.45
178.07
147.91
112.24
72.65
31.51
-7.91
-41.65
-66.10
-79.08
-80.66
-73.02
-59.44
-42.88
-25.04
-6.29
13.57
34.28
54.65
72.78
86.93
96.34
101.64
104.63
107.50
112.12
119.17
127.77
135.41
138.51
133.51
118.23
92.88
60.23
24.83
-8.47
-35.96
-55.81
-67.91
-73.09
-72.45
-66.95
-57.60
-45.65
-32.60
-20.02
-9.02
-0.03
7.23
13.31
18.66
23.36
27.31
30.46
33.01
35.45
38.26
41.81
46.25
51.59
57.74
64.32
70.57
75.28
77.17
75.48
70.56
64.01
58.25
55.47
56.69
61.39
67.89
74.24
79.05
81.91
83.09
82.99
81.56
78.16
71.96
62.59
50.56
37.24
24.33
13.02
3.49
-5.02
-13.61
-22.79
-32.02
-39.96
-45.26
-47.02
-45.19
-40.57
-34.48
-28.61
-25.01
-26.04
-33.80
-48.97
-69.48
-90.51
-106.09
-111.99
-108.00
-98.16
-88.87
-85.67
-90.83
-102.21
-114.93
-124.02
-127.00
-124.49
-118.88
-112.47
-106.10
-99.40
-91.23
-80.87
-68.53
-55.52
-44.57
-38.04
-36.64
-36.75
-35.12
-29.30
-19.54
-6.92
6.66
19.11
29.04
35.95
40.08
41.70
41.37
39.70
37.54
35.63
34.60
35.06
37.38
41.53
46.69
51.78
55.66
57.44
56.48
52.56
45.94
37.35
27.80
18.10
8.93
0.63
-6.69
-13.25
-19.40
-25.44
-31.56
-37.77
-43.89
-49.45
-53.64
-55.50
-54.32
-49.91
-42.75
-33.88
-24.60
-16.06
-9.01
-3.72
-0.07
2.24
3.60
4.42
5.12
6.03
7.33
8.96
10.65
11.97
12.53
12.02
10.40
7.94
5.21
2.99
2.05
2.83
5.19
8.36
11.23
12.78
12.40
10.11
6.42
2.03
-2.44
-6.59
-10.18
-12.99
-14.75
-15.27
-14.60
-13.25
-12.07
-12.07
-13.89
-17.53
-22.13
-26.19
-28.00
-26.21
-20.29
-10.71
1.19
13.57
24.71
33.37
38.98
41.60
41.58
39.35
35.34
30.05
24.22
18.81
14.72
12.43
11.66
11.45
10.59
8.15
3.84
-1.87
-8.03
-13.62
-17.75
-19.84
-19.52
-16.67
-11.45
-4.45
3.35
10.76
16.66
20.39
21.83
21.35
19.48
16.70
13.30
9.40
5.16
0.90
-2.90
-5.77
-7.42
-7.92
-7.71
-7.44
-7.62
-8.42
-9.57
-10.51
-10.71
-9.92
-8.19
-5.77
-2.85
0.54
4.44
8.75
13.06
16.67
18.83
19.16
17.77
15.25
12.39
9.91
8.22
7.47
7.58
8.33
9.49
10.87
12.45
14.41
17.09
20.89
26.06
32.47
39.66
46.90
53.45
58.82
62.80
65.40
66.59
66.09
63.37
57.81
49.16
37.85
25.10
12.59
1.94
-5.88
-10.73
-13.17
-13.95
-13.60
-12.30
-10.06
-6.99
-3.57
-0.42
1.94
3.43
4.41
5.46
6.95
8.77
10.36
10.96
10.02
7.50
3.81
-0.28
-4.08
-7.13
-9.41
-11.27
-13.30
-16.01
-19.47
-23.15
-25.95
-26.58
-24.08
-18.27
-9.91
-0.50
8.24
14.90
18.71
19.78
18.90
17.26
15.90
15.30
15.05
13.98
10.60
3.80
-6.63
-19.80
-34.18
-48.15
-60.59
-71.05
-79.53
-85.98
-90.20
-91.79
-90.55
-86.79
-81.36
-75.40
-69.94
-65.62
-62.57
-60.56
-59.29
-58.57
-58.37
-58.64
-59.11
-59.28
-58.56
-56.67
-53.83
-50.77
-48.42
-47.46
-47.98
-49.41
-50.69
-50.66
-48.44
-43.63
-36.43
-27.45
-17.59
-7.77
1.23
8.87
14.88
19.17
21.76
22.76
22.40
21.05
19.30
17.78
16.99
17.15
18.05
19.10
19.60
19.11
17.73
16.16
15.47
16.64
20.16
25.79
32.72
39.90
46.40
51.56
54.88
55.93
54.33
49.91
43.01
34.47
25.49
17.23
10.47
5.43
1.87
-0.70
-2.83
-5.04
-7.70
-10.90
-14.30
-17.05
-18.09
-16.54
-12.17
-5.64
1.82
8.88
14.70
19.08
22.30
24.72
26.44
27.31
27.18
26.13
24.57
23.01
21.80
20.90
19.99
18.67
16.70
14.06
10.80
6.83
1.94
-4.04
-10.91
-18.01
-24.31
-28.84
-31.04
-31.01
-29.43
-27.27
-25.41
-24.36
-24.04
-23.85
-22.85
-19.92
-14.16
-5.19
6.62
20.16
33.86
46.12
55.81
62.52
66.56
68.74
70.00
71.06
72.23
73.38
74.08
73.85
72.42
69.91
66.84
63.99
62.13
61.71
62.63
64.14
64.98
63.75
59.24
50.81
38.54
23.20
6.01
-11.70
-28.77
-44.22
-57.30
-67.42
-74.12
-77.26
-76.90
-73.37
-67.09
-58.49
-47.99
-36.18
-23.85
-11.93
-1.32
7.47
14.34
19.41
22.57
23.23
20.25
12.48
-0.53
-18.00
-37.76
-56.77
-72.00
-81.34
-84.14
-81.33
-74.80
-66.76
-58.95
-52.24
-46.48
-40.79
-34.04
-25.39
-14.63
-2.36
10.12
21.22
29.46
33.96
34.61
32.09
27.46
21.85
16.31
11.78
9.22
9.56
13.48
21.02
31.34
42.71
53.02
60.45
64.02
63.90
61.09
56.92
52.48
48.21
43.91
38.88
32.24
23.28
11.55
-2.93
-19.60
-37.16
-53.57
-66.31
-72.78
-71.14
-61.00
-43.82
-22.71
-1.55
16.24
28.64
35.28
37.06
35.16
30.39
23.12
13.45
1.62
-11.95
-26.60
-41.56
-56.06
-69.38
-80.81
-89.74
-95.32
-96.30
-90.90
-77.39
-54.65
-23.49
12.94
49.66
81.33
104.01
116.36
119.76
117.34
112.46
107.34
102.26
95.62
84.69
66.50
39.07
1.97
-43.38
-93.74
-144.48
-190.08
-224.99
-244.33
-244.78
-225.40
-188.02
-136.84
-77.55
-15.90
43.31
96.54
141.04
174.82
196.54
205.98
204.37
194.19
178.37
159.18
137.36
112.02
81.48
44.65
2.20
-43.20
-87.55
-126.53
-156.48
-174.90
-180.49
-173.11
-153.91
-125.70
-92.94
-61.26
-36.08
-21.21
-17.77
-24.03
-36.49
-51.27
-65.41
-77.30
-86.33
-92.32
-95.10
-94.56
-91.05
-85.60
-79.69
-74.40
-69.52
-63.34
-53.25
-36.97
-13.96
14.02
43.23
69.17
88.04
97.70
97.94
90.16
76.62
59.77
41.77
24.37
8.85
-3.88
-13.34
-19.53
-22.98
-24.71
-25.92
-27.54
-29.77
-31.76
-31.85
-28.19
-19.54
-5.93
11.31
29.91
47.46
62.02
72.40
78.18
79.43
76.51
70.08
61.02
50.45
39.52
29.16
19.98
12.21
5.69
0.01
-5.37
-10.85
-16.37
-21.26
-24.28
-24.01
-19.51
-10.74
1.28
14.77
27.87
39.09
47.67
53.50
56.80
57.91
57.12
54.78
51.36
47.48
43.80
40.74
38.26
35.90
32.84
28.29
21.91
14.11
6.02
-0.79
-4.85
-5.38
-2.52
2.70
8.69
13.84
16.89
17.16
14.54
9.40
2.38
-5.69
-13.93
-21.52
-27.92
-32.92
-36.71
-39.73
-42.54
-45.58
-49.02
-52.67
-55.86
-57.57
-56.64
-52.22
-44.02
-32.61
-19.28
-5.60
6.97
17.50
25.59
31.19
34.32
34.95
33.01
28.66
22.41
15.15
7.90
1.56
-3.36
-6.84
-9.25
-11.03
-12.39
-13.11
-12.49
-9.72
-4.19
4.07
14.34
25.36
35.70
44.18
50.08
53.16
53.55
51.57
47.60
42.20
36.11
30.26
25.58
22.77
22.01
22.85
24.28
25.01
23.94
20.57
15.25
9.10
3.65
0.22
-0.61
0.76
2.99
4.35
3.28
-1.13
-8.93
-19.42
-31.50
-43.96
-55.66
-65.63
-73.07
-77.46
-78.59
-76.74
-72.65
-67.38
-62.07
-57.51
-53.91
-50.79
-47.04
-41.40
-32.95
-21.55
-8.01
6.10
18.92
28.88
35.09
37.41
36.35
32.70
27.40
21.33
15.23
9.68
4.95
0.99
-2.57
-6.30
-10.70
-15.92
-21.57
-26.68
-29.93
-30.06
-26.34
-18.87
-8.61
2.91
14.09
23.67
30.91
35.60
37.83
37.82
35.86
32.23
27.32
21.61
15.61
9.80
4.50
-0.16
-4.33
-8.35
-12.58
-17.13
-21.64
-25.23
-26.69
-24.92
-19.41
-10.39
1.14
13.77
26.11
37.11
46.20
53.24
58.34
61.69
63.44
63.77
62.91
61.15
58.78
55.90
52.32
47.54
41.09
32.95
23.86
15.25
8.77
5.54
5.65
8.10
11.32
13.76
14.43
13.03
9.71
4.79
-1.37
-8.36
-15.55
-22.15
-27.39
-30.80
-32.44
-32.86
-32.92
-33.42
-34.94
-37.71
-41.54
-45.89
-49.92
-52.62
-53.03
-50.44
-44.70
-36.26
-26.07
-15.37
-5.32
3.19
9.69
14.07
16.45
17.12
16.42
14.74
12.47
9.98
7.55
5.34
3.32
1.32
-0.97
-3.83
-7.27
-10.94
-14.06
-15.64
-14.92
-11.64
-6.26
0.21
6.54
11.68
14.92
16.04
15.08
12.28
7.96
2.53
-3.46
-9.40
-14.70
-18.99
-22.18
-24.43
-26.08
-27.45
-28.64
-29.43
-29.24
-27.34
-23.14
-16.50
-7.90
1.64
10.81
18.44
23.78
26.71
27.49
26.59
24.53
21.77
18.76
15.91
13.55
11.78
10.42
9.08
7.31
4.77
1.37
-2.68
-6.92
-10.69
-13.29
-14.00
-12.41
-8.65
-3.38
2.32
7.29
10.57
11.64
10.41
7.46
3.58
-0.42
-3.83
-6.07
-6.80
-6.16
-4.61
-2.98
-1.60
-0.75
-0.74
-1.76
-3.80
-6.36
-8.83
-10.17
-9.62
-6.07
0.76
10.12
20.63
30.94
40.36
48.42
55.44
61.60
67.89
74.88
82.47
90.26
97.91
105.68
113.81
123.36
127.38
121.29
104.94
82.95
61.29
43.49
33.97
30.42
30.97
34.25
40.31
49.07
57.53
63.10
63.68
58.45
47.54
32.75
16.14
0.35
-12.74
-22.44
-28.94
-33.18
-36.27
-39.66
-44.03
-49.58
-55.29
-59.61
-61.10
-58.81
-52.80
-44.00
-34.16
-24.82
-17.24
-11.94
-8.90
-7.82
-8.18
-9.49
-11.38
-13.82
-16.92
-21.00
-26.29
-32.67
-39.64
-46.33
-52.01
-56.42
-59.82
-62.69
-65.34
-67.64
-69.03
-68.97
-67.38
-64.77
-62.08
-59.98
-58.64
-57.65
-56.38
-54.45
-52.00
-49.51
-47.52
-46.32
-45.83
-45.87
-46.29
-47.06
-48.19
-49.52
-50.75
-51.53
-51.64
-51.05
-49.83
-48.00
-45.53
-42.36
-38.60
-34.58
-30.76
-27.65
-25.62
-24.82
-25.17
-26.40
-28.14
-29.90
-31.17
-31.40
-30.18
-27.36
-23.17
-18.13
-13.00
-8.51
-5.15
-2.98
-1.61
-0.31
1.74
5.16
10.16
16.51
23.59
30.61
36.84
41.83
45.40
47.73
49.26
50.56
52.21
54.65
58.06
62.29
66.89
71.16
74.34
75.75
74.94
71.95
67.30
62.04
57.39
54.41
53.50
54.16
55.11
54.74
51.77
45.68
36.83
26.09
14.35
2.14
-10.33
-22.88
-35.08
-46.08
-55.00
-61.31
-65.29
-67.84
-70.03
-72.45
-74.71
-75.53
-73.28
-66.80
-56.01
-42.08
-27.01
-12.93
-1.41
6.93
12.27
15.29
16.70
16.99
16.35
14.87
12.66
9.99
7.23
4.76
2.74
1.06
-0.68
-3.01
-6.31
-10.60
-15.36
-19.63
-22.32
-22.63
-20.31
-15.85
-10.22
-4.55
0.24
3.59
5.38
5.74
4.97
3.39
1.34
-0.85
-2.92
-4.72
-6.20
-7.46
-8.60
-9.68
-10.73
-11.81
-13.10
-14.90
-17.50
-20.86
-24.47
-27.31
-28.16
-26.01
-20.53
-12.26
-2.48
7.23
15.43
21.22
24.35
25.08
23.92
21.36
17.79
13.51
8.86
4.26
0.16
-3.09
-5.41
-6.96
-8.05
-8.83
-9.20
-8.74
-6.91
-3.24
2.50
10.24
19.71
30.40
41.60
52.41
61.83
69.06
73.73
75.95
76.20
74.96
72.48
68.69
63.49
56.90
49.25
41.07
32.86
24.96
17.64
11.24
6.34
3.65
3.64
6.22
10.65
15.82
20.78
25.12
29.05
32.95
36.80
39.82
40.43
36.82
27.64
12.68
-6.95
-29.05
-51.02
-70.54
-86.18
-97.54
-105.08
-109.65
-111.90
-111.94
-109.36
-103.51
-93.99
-80.99
-65.32
-48.24
-31.06
-14.94
-0.76
10.85
19.47
24.99
27.64
28.09
27.29
26.39
26.34
27.74
30.65
34.68
39.13
43.22
46.49
49.06
51.68
55.50
61.49
69.86
79.77
89.44
96.84
100.41
99.63
94.98
87.55
78.48
68.47
57.75
46.21
33.77
20.59
7.13
-6.00
-18.12
-28.71
-37.41
-44.16
-49.05
-52.30
-54.11
-54.60
-53.79
-51.75
-48.70
-45.11
-41.69
-39.21
-38.24
-38.98
-41.16
-44.24
-47.67
-51.05
-54.26
-57.20
-59.62
-61.02
-60.75
-58.35
-53.86
-47.93
-41.66
-36.24
-32.48
-30.55
-29.93
-29.57
-28.29
-25.16
-19.74
-12.25
-3.43
5.69
14.07
20.89
25.65
28.17
28.52
27.03
24.20
20.66
17.06
13.88
11.32
9.26
7.37
5.25
2.59
-0.74
-4.67
-8.88
-12.75
-15.44
-15.99
-13.70
-8.44
-0.81
7.99
16.51
23.59
28.62
31.56
32.76
32.61
31.44
29.44
26.85
24.00
21.30
19.09
17.52
16.50
15.76
14.94
13.69
11.68
8.77
5.14
1.46
-1.24
-1.86
0.30
5.10
11.55
18.01
22.80
24.68
23.16
18.53
11.64
3.61
-4.35
-11.15
-15.99
-18.51
-18.99
-18.27
-17.47
-17.63
-19.39
-22.80
-27.35
-32.10
-35.90
-37.67
-36.72
-32.98
-27.23
-20.82
-15.33
-12.02
-11.47
-13.53
-17.75
-23.85
-31.93
-42.31
-55.03
-69.36
-83.80
-96.49
-106.01
-112.00
-115.26
-117.11
-118.45
-118.99
-117.23
-111.16
-99.31
-81.64
-59.72
-36.15
-13.41
7.25
26.05
44.07
62.12
79.92
95.82
107.37
112.33
109.74
100.66
87.61
73.67
61.04
50.91
43.52
38.57
35.88
35.89
40.17
50.45
67.78
91.17
118.46
146.70
172.99
195.02
211.93
224.93
236.30
248.11
260.33
272.01
281.05
284.58
279.03
260.88
228.23
181.23
123.20
59.89
0.58
-44.69
-69.33
-73.70
-69.71
-71.29
-88.97
-117.83
-152.85
-189.34
-224.12
-253.35
-274.08
-283.75
-279.31
-258.89
-223.53
-179.28
-134.25
-96.39
-71.35
-61.85
-67.19
-83.20
-104.17
-124.19
-139.25
-146.31
-143.82
-132.01
-113.01
-89.87
-65.25
-41.07
-18.23
2.42
20.78
37.05
51.31
63.31
72.70
79.49
83.85
85.98
85.59
82.43
76.59
68.60
59.46
50.48
42.98
37.74
34.78
33.22
31.83
29.50
25.72
20.62
15.05
10.17
7.08
6.44
8.29
12.06
16.78
21.36
24.80
26.37
25.65
22.61
17.54
11.07
4.07
-2.52
-7.87
-11.45
-13.12
-13.15
-12.07
-10.55
-9.24
-8.59
-8.69
-9.23
-9.52
-8.71
-6.12
-1.54
4.60
11.34
17.51
22.13
24.78
25.63
25.25
24.34
23.39
22.53
21.62
20.32
18.35
15.63
12.38
9.02
6.04
3.69
1.82
-0.08
-2.62
-6.11
-10.33
-14.50
-17.56
-18.56
-16.84
-12.00
-3.79
7.91
22.75
39.56
56.12
69.54
77.08
77.14
69.83
56.84
40.74
24.02
8.35
-5.47
-17.31
-27.33
-35.71
-42.60
-48.18
-52.52
-55.54
-56.84
-55.85
-52.07
-45.48
-36.64
-26.75
-17.25
-9.38
-3.86
-0.74
0.49
0.58
0.20
-0.22
-0.52
-0.76
-1.07
-1.57
-2.43
-3.81
-5.94
-8.90
-12.47
-16.03
-18.61
-19.17
-16.93
-11.73
-4.12
4.81
13.69
21.29
26.77
29.81
30.57
29.46
26.96
23.39
18.89
13.51
7.35
0.67
-6.03
-12.24
-17.53
-21.78
-25.20
-28.20
-31.19
-34.28
-37.21
-39.33
-39.85
-38.13
-33.92
-27.44
-19.33
-10.41
-1.54
6.50
12.96
17.23
18.89
17.94
14.84
10.54
6.07
2.31
-0.32
-1.97
-3.08
-4.21
-5.77
-7.85
-10.17
-12.21
-13.23
-12.55
-9.76
-4.87
1.57
8.64
15.36
20.93
24.88
27.09
27.60
26.49
23.92
20.14
15.59
10.86
6.54
2.98
0.21
-2.07
-4.35
-7.08
-10.47
-14.35
-18.14
-20.97
-21.94
-20.43
-16.40
-10.52
-4.02
1.70
5.52
7.00
6.42
4.67
2.87
1.99
2.58
4.56
7.32
9.79
10.81
9.41
5.16
-1.65
-10.15
-19.19
-27.65
-34.71
-39.89
-42.95
-43.73
-42.15
-38.23
-32.31
-24.94
-16.93
-9.13
-2.25
3.19
6.96
9.04
9.66
9.21
8.24
7.31
6.81
6.82
7.16
7.43
7.30
6.60
5.38
3.83
2.22
0.80
-0.13
-0.20
1.00
3.72
7.88
12.94
17.94
21.78
23.61
23.14
20.74
17.26
13.65
10.63
8.48
7.12
6.20
5.40
4.42
3.08
1.19
-1.40
-4.76
-8.78
-13.02
-16.79
-19.24
-19.67
-17.74
-13.60
-7.86
-1.41
4.82
10.04
13.70
15.51
15.39
13.44
9.95
5.40
0.38
-4.40
-8.33
-11.01
-12.33
-12.49
-11.94
-11.29
-11.12
-11.76
-13.12
-14.63
-15.37
-14.42
-11.25
-6.04
0.36
6.73
12.01
15.62
17.60
18.38
18.43
18.03
17.10
15.51
13.20
10.44
7.69
5.48
4.16
3.72
3.92
4.35
4.65
4.56
4.05
3.28
2.54
2.22
2.68
4.09
6.38
9.26
12.34
15.26
17.82
19.93
21.55
22.52
22.51
21.17
18.30
14.11
9.33
5.04
2.40
2.22
4.62
8.94
13.89
18.06
20.43
20.92
20.40
20.38
22.40
27.26
34.65
43.18
50.94
56.23
58.21
57.14
54.02
49.94
45.50
40.55
34.39
26.43
16.67
6.08
-3.68
-10.70
-13.15
-9.43
1.73
20.89
47.07
77.12
106.08
128.75
141.91
145.78
143.58
139.32
135.06
129.42
118.57
98.88
69.50
33.23
-4.65
-38.68
-65.17
-82.81
-92.21
-95.09
-93.72
-90.20
-85.83
-80.35
-71.92
-58.24
-38.74
-16.26
3.17
12.50
7.07
-12.99
-42.60
-74.07
-100.60
-118.99
-130.37
-139.20
-151.26
-171.45
-202.35
-242.91
-287.95
-328.70
-354.53
-355.66
-326.15
-266.39
-183.60
-90.19
-0.17
75.36
131.62
171.35
202.67
234.29
270.48
308.30
338.57
350.02
334.75
291.91
228.15
154.59
82.41
19.52
-30.49
-67.13
-91.06
-102.91
-103.37
-93.72
-76.93
-57.56
-40.62
-30.09
-27.60
-32.12
-40.45
-48.95
-55.11
-58.61
-61.10
-64.95
-71.81
-81.63
-92.55
-101.74
-106.61
-105.84
-99.77
-90.03
-78.81
-68.11
-59.24
-52.78
-48.70
-46.60
-45.76
-45.19
-43.61
-39.68
-32.60
-22.58
-11.00
-0.06
8.09
12.27
12.81
11.38
10.27
11.40
15.59
22.51
31.05
39.95
48.22
55.22
60.47
63.46
63.60
60.45
53.89
44.35
32.80
20.48
8.60
-1.94
-10.70
-17.71
-23.38
-28.19
-32.56
-36.59
-39.98
-42.12
-42.26
-39.78
-34.40
-26.25
-15.77
-3.57
9.65
23.07
35.72
46.40
53.87
57.23
56.30
51.83
45.28
38.32
32.17
27.26
23.24
19.38
15.02
9.91
4.22
-1.64
-7.23
-12.13
-15.96
-18.26
-18.55
-16.53
-12.23
-6.30
0.16
5.80
9.39
10.20
8.20
4.07
-1.01
-5.74
-9.03
-10.34
-9.75
-7.87
-5.59
-3.82
-3.17
-3.90
-5.87
-8.65
-11.61
-14.14
-15.70
-16.00
-14.97
-12.83
-10.07
-7.28
-5.15
-4.21
-4.84
-7.11
-10.84
-15.60
-20.84
-25.99
-30.62
-34.42
-37.22
-38.89
-39.31
-38.33
-35.91
-32.25
-27.79
-23.04
-18.28
-13.43
-8.09
-1.79
5.63
13.80
21.81
28.47
32.80
34.34
33.20
29.77
24.53
17.92
10.34
2.18
-6.19
-14.27
-21.51
-27.36
-31.47
-33.76
-34.35
-33.67
-32.56
-32.11
-33.14
-35.56
-38.19
-38.98
-35.79
-27.12
-12.72
6.10
26.80
46.60
63.24
75.29
82.10
82.80
77.26
67.81
58.84
54.39
56.08
62.88
72.00
80.20
86.15
89.38
90.27
89.62
88.14
86.45
85.18
85.02
86.66
89.41
92.89
96.57
99.65
101.26
100.87
98.62
95.26
91.70
88.45
85.26
81.03
74.17
63.32
48.07
29.15
8.02
-13.83
-35.37
-55.87
-74.59
-90.47
-102.23
-108.85
-110.16
-107.08
-101.37
-94.98
-89.34
-85.23
-82.99
-82.85
-85.09
-89.88
-96.94
-105.40
-113.79
-120.39
-123.66
-122.65
-117.26
-108.20
-96.91
-85.20
-74.87
-67.26
-62.99
-61.71
-62.30
-63.12
-62.56
-59.53
-53.78
-45.95
-37.31
-29.31
-23.16
-19.56
-18.58
-19.79
-22.48
-25.87
-29.39
-32.87
-36.63
-41.18
-46.85
-53.36
-59.55
-63.50
-62.92
-55.70
-40.56
-17.45
12.30
46.24
81.12
113.49
140.25
159.10
169.01
170.34
164.71
154.53
142.38
130.42
119.90
111.08
103.49
96.26
88.58
79.83
69.60
57.57
43.58
27.81
11.04
-5.32
-19.40
-29.34
-33.81
-32.40
-25.75
-15.42
-3.46
8.01
17.15
22.69
24.12
21.72
16.48
9.75
2.85
-3.45
-9.11
-14.75
-21.19
-28.94
-37.93
-47.54
-56.91
-65.34
-72.36
-77.67
-80.92
-81.61
-79.18
-73.36
-64.34
-52.85
-39.97
-26.88
-14.68
-4.26
3.69
8.82
11.15
11.14
9.70
7.91
6.88
7.45
10.04
14.47
20.04
25.61
30.14
33.16
35.20
37.76
42.74
51.57
64.50
80.44
97.39
113.36
127.01
137.93
146.29
152.50
156.84
159.42
160.38
160.07
159.01
157.81
156.84
156.00
154.65
151.76
146.25
